start,start_unix,end,end_unix,direction,finished,bottom,top,start_open,start_high,start_low,start_close,start_volume,end_open,end_high,end_low,end_close,end_volume,bb_bbh,bb_bbl,kch_high,kch_low,squeeze,rsi,roc,tsi,mfi,vwap,atr,adx,obv,pocket_pivot,cmf,aroon_up,aroon,aroon_down,sma,ema20,ema50,macd_diff,rel_open,rel_high,rel_low,rel_close
2016-03-15,1458014400,2016-04-01,1459483200,0.75,1,87.9,97.73148188250381,87.61,88.46,87.34,88.3,880598.0,93.08,95.49,92.9,95.33,1584629.0,1.022059903327289,-11.348295086375643,-3.792440295115213,-7.019126542886113,0,23.14903370896468,12.763189022947707,46.30005533746059,24.107349184225654,-3.4735863329538574,1.797606905958566,14.931742320096262,0.9112903437287925,0,0.34184737173279817,50.0,92.0,-42.0,-5.163117591524184,-5.136673690057009,-9.537600694294952,0.15621163064558186,-0.02360222385398092,0.0016783803629496497,-0.02549040176229933,0.014472704054485419
2016-03-17,1458187200,2016-04-04,1459742400,0.25,0,91.20559910275475,97.73148188250381,90.1,92.47,90.1,92.21,1907857.0,95.37,95.44,94.09,94.56,1568272.0,2.235256018863055,-10.15192268552974,-2.588479977439391,-5.751551043429217,0,20.03186364756654,9.469784672377873,46.15815783479006,28.598004719344885,-2.344643554664387,1.784774793393001,16.30264424158929,-0.9350110579864946,0,0.29967294834663527,46.0,92.0,-46.0,-3.958333333333343,-3.948565261959942,-8.45583139145387,0.08876969564763248,0.008565989847715727,0.009306260575296044,-0.004970389170896761,-0.00807720549669566
2016-03-17,1458187200,2016-04-05,1459828800,0.25,0,91.20559910275475,97.73148188250381,90.1,92.47,90.1,92.21,1907857.0,93.65,94.43,93.48,93.92,1448615.0,3.1783366993809636,-9.063132270079407,-1.567468767745595,-4.691404031800104,0,17.514675204348862,7.7929530586480045,44.93937712373193,26.585797763421112,-1.415733608493241,1.7507209464149946,16.868499507594876,-0.8688630003530837,0,0.2630046133216837,42.0,84.0,-42.0,-2.942397785349229,-2.980322813867758,-7.524882963059525,-0.025607659518433135,-0.0028747870528108566,0.005430153321976272,-0.004684838160136207,-0.006768189509306244
2016-03-17,1458187200,2016-04-06,1459915200,0.25,0,91.20559910275475,97.73148188250381,90.1,92.47,90.1,92.21,1907857.0,93.93,94.57,93.25,94.47,893450.0,2.583755774588809,-8.655524590085761,-1.6915422885572298,-4.820577961257527,0,18.537662273851126,10.413744740532955,44.31084571361586,26.34922640850985,-1.7538755128056351,1.7160098041213772,17.131304451320645,0.5411266095511048,0,0.2505160001322568,38.0,84.0,-46.0,-3.0358844077484832,-3.207531972806038,-7.747062224679041,-0.0874059918192911,-0.0057161003493171325,0.001058537101725321,-0.012914152641050003,0.0058560477001703415
2016-03-17,1458187200,2016-04-07,1460001600,0.25,0,91.20559910275475,97.73148188250381,90.1,92.47,90.1,92.21,1907857.0,93.73,94.26,92.78,93.23,990420.0,3.7075725626845895,-6.447034109397023,0.03003325109942523,-3.180306768207643,0,13.77174374852649,8.14290685535322,41.6422201445519,21.21873078378158,-0.3132600696315109,1.7441111847347603,16.840607369894762,-0.6021486935801594,0,0.1803579070981894,34.0,80.0,-46.0,-1.3697307733562099,-1.73727819266675,-6.264369049326902,-0.22704364281490497,0.005363080553469901,0.011047945940148018,-0.004826772498122911,-0.013125860061395045
2016-03-17,1458187200,2016-04-08,1460088000,0.25,0,91.20559910275475,97.73148188250381,90.1,92.47,90.1,92.21,1907857.0,93.58,94.52,93.58,94.26,764644.0,2.3857197326717454,-6.48289775091915,-0.731310559445518,-3.794115566871781,0,15.848200332699335,8.669587272308059,40.232669626971955,17.221484553272717,-1.182025933120741,1.6995887626827633,16.702209535492088,0.4717427951110418,0,0.2803274990768997,30.0,68.0,-38.0,-2.0485890091237025,-2.5433009366918924,-7.002810165659554,-0.2627658591104707,-0.007214088690855158,0.0027583280288563383,-0.007214088690855158,0.011047945940148018
2016-03-17,1458187200,2016-04-11,1460347200,0.25,1,91.20559910275475,97.73148188250381,90.1,92.47,90.1,92.21,1907857.0,94.46,95.11,94.05,94.13,980649.0,2.484117862365622,-5.713693980500096,-0.2730266652501854,-3.3230638478699603,0,15.350569452178746,6.349565020901582,38.872821993057045,14.157993993680293,-0.8041687517685858,1.6608050249777702,16.86445871250246,-0.6161017374771516,0,0.33007312930867816,26.0,68.0,-42.0,-1.6147880590672372,-2.179305914089909,-6.604791334582842,-0.3049128699896735,0.0035057898650801,0.010411133538723139,-0.0008498884521406236,-0.0013791640144282802
2016-04-01,1459483200,2016-04-12,1460433600,-0.25,0,91.60906680795492,97.73148188250381,93.08,95.49,92.9,95.33,1584629.0,94.33,95.39,93.86,95.19,922012.0,1.2902930899888645,-5.985113974535551,-1.0027313793465709,-4.082886857863201,0,17.461161816278448,7.827367467149974,38.57635391739226,12.102118413083112,-1.7065820177570572,1.6398109803063405,17.149020613088332,0.5934814366507815,0,0.3250950713109089,22.0,68.0,-46.0,-2.3474104422733433,-2.957305063143096,-7.3450089311346005,-0.27223942363877596,-0.00903456245403933,0.002101061035823193,-0.013972055888223589,0.011261021990863762
2016-04-01,1459483200,2016-04-13,1460520000,-0.25,0,91.60906680795492,97.73148188250381,93.08,95.49,92.9,95.33,1584629.0,95.24,96.33,95.02,96.28,1106896.0,0.11684242360495034,-6.193909311847577,-1.7063079905830278,-4.7713266860545644,0,19.473853588936763,9.037372593431488,39.172462970094266,19.050152939289404,-2.5363035830611125,1.6026298992519492,17.8306710124969,0.7198343198006074,0,0.36419260456943164,50.0,96.0,-46.0,-3.038533444121313,-3.6696596782456083,-8.064794392087705,-0.19184774162781348,-0.01080182800166185,0.0005193186539260708,-0.013086830078936518,0.011450782645235913
2016-04-01,1459483200,2016-04-14,1460606400,-0.25,0,91.60906680795492,97.73148188250381,93.08,95.49,92.9,95.33,1584629.0,95.87,96.58,95.87,96.51,1116215.0,0.06659340808383263,-5.916764374823046,-1.6447345698200735,-4.554277622353467,0,19.887566256978317,7.400400623191637,39.827969344271224,26.821454670987066,-2.3877645189189707,1.5371580199681076,18.56708675589126,0.7315397328152897,0,0.34936178257984757,50.0,96.0,-46.0,-2.9250854833695996,-3.5278761355143473,-7.959033362272734,-0.14020738984618442,-0.00663143715677128,0.0007253134390217131,-0.00663143715677128,0.00238886580805997
2016-04-01,1459483200,2016-04-15,1460692800,-0.25,1,91.60906680795492,97.73148188250381,93.08,95.49,92.9,95.33,1584629.0,96.67,97.26,96.41,97.22,1332266.0,-0.10009262781437656,-6.652633148774811,-2.1650209147637582,-4.896969073578816,0,21.15773972160926,5.433250189784195,40.90308125759593,27.058362805413665,-2.727514941669682,1.47938737369779,19.521125901543826,0.8829951993342114,0,0.37918940765241804,50.0,92.0,-42.0,-3.3763628882945937,-3.8293272944677597,-8.292731903758622,-0.07834284778350797,-0.005657272166220917,0.0004114379757251818,-0.008331619008434488,0.0073567505957932156
2016-04-04,1459742400,2016-04-18,1460952000,0.75,0,91.60906680795492,100.00067360889766,95.37,95.44,94.09,94.56,1568272.0,96.93,97.71,96.62,97.56,2200265.0,0.06080895123477603,-6.895577298918241,-2.288847888478884,-4.9046740467404675,0,21.75823009778516,6.28608780912953,42.03729881740049,28.42153919742043,-2.6012900667188887,1.4487337653910324,20.574420764316038,1.4459540021722972,1,0.3817321636888401,50.0,96.0,-46.0,-3.4173841738417394,-3.767867779434866,-8.274596304433516,-0.036746999264691826,-0.0064575645756457245,0.0015375153751535642,-0.00963509635096349,0.0034972227936638234
2016-04-04,1459742400,2016-04-19,1461038400,0.75,0,91.60906680795492,100.00067360889766,95.37,95.44,94.09,94.56,1568272.0,97.97,98.44,97.58,98.23,1841282.0,-0.062038595999283075,-7.433634823526319,-2.7019919237164487,-5.194102276969019,0,22.92740356115192,7.027674874700374,43.473231632704326,28.532415038363723,-2.852502457299721,1.400066941994836,21.805017570901988,1.2066584975094348,1,0.3626353509561662,50.0,96.0,-46.0,-3.747836709762794,-4.0028845957600225,-8.551201593212838,0.01110788460174561,-0.002646849231395798,0.002137839763819649,-0.006617123078489273,0.006867568675686719
2016-04-04,1459742400,2016-04-20,1461124800,0.75,1,91.60906680795492,100.00067360889766,95.37,95.44,94.09,94.56,1568272.0,98.49,98.61,97.39,97.83,1657575.0,0.7674651291542887,-6.939396029696027,-2.024941224573226,-4.5108862312174125,0,21.0781986610057,5.670771224886584,43.87955642961593,27.822610286662524,-2.103463726147055,1.394453559569797,22.67151721835929,-1.094361907138189,0,0.3567044276532961,46.0,92.0,-46.0,-3.085965450270862,-3.266533161503986,-7.856614433714228,-0.007933038923122027,0.006746396810794142,0.007973014412756774,-0.004497597873862835,-0.00407207574060886
2016-04-12,1460433600,2016-04-21,1461211200,0.25,0,94.52971424206585,100.00067360889766,94.33,95.39,93.86,95.19,922012.0,94.15,95.24,92.8,92.93,3774280.0,6.001801875299037,-1.8524421421665949,3.2992575056494076,0.5595609598622673,0,3.5643191866142487,1.0218502011088293,35.12672004517958,12.143729831605839,2.7405108519161274,1.749744118096011,19.39247951398768,-2.4232929931424483,-1,0.08763377008624573,42.0,80.0,-38.0,2.074679866566214,1.6593473609891873,-2.8805187358950235,-0.35506620803799516,0.013128160981383807,0.024857419563111938,-0.0013989023996557881,-0.05008688541347228
2016-04-12,1460433600,2016-04-22,1461297600,0.25,0,94.52971424206585,100.00067360889766,94.33,95.39,93.86,95.19,922012.0,93.85,95.57,93.37,95.4,2424643.0,3.1606796565066304,-3.922734163844183,0.8422431865827917,-1.9093291404612103,0,8.933531408514298,3.8876184253512003,30.755271903176023,13.646608846938776,0.057689072618188675,1.7803596672885658,16.304290160716405,1.5348902615339268,0,0.20189024790163557,38.0,80.0,-42.0,-0.381027253668762,-0.8800739468514678,-5.183467690263811,-0.418498496103449,-0.016247379454926714,0.0017819706498949373,-0.021278825995807105,0.02657914559345742
2016-04-12,1460433600,2016-04-25,1461556800,0.25,0,94.52971424206585,100.00067360889766,94.33,95.39,93.86,95.19,922012.0,95.24,95.49,94.37,94.9,1015482.0,3.5758271103095325,-3.004699607675164,1.5437302423603683,-1.2634351949420477,0,7.516432577018207,2.9172540939160743,26.79975346865746,19.70482025244597,0.6674055649045272,1.7462005565040482,13.436685761250224,-0.6517569586734221,0,0.20854029712111793,34.0,80.0,-46.0,0.28556375131718426,-0.3237603673355238,-4.500224811443871,-0.4893719615815568,0.003582718651211625,0.006217070600632146,-0.005584826132771337,-0.00524109014675056
2016-04-12,1460433600,2016-04-26,1461643200,0.25,0,94.52971424206585,100.00067360889766,94.33,95.39,93.86,95.19,922012.0,95.55,96.01,95.25,95.71,1750615.0,2.6958935497086003,-3.558917267188491,0.7940654059137131,-1.8942639222651536,0,9.189824046756165,2.7041528060950704,24.52963436012586,20.912674203906676,-0.11293697337387698,1.6905888521568464,11.126004653123353,1.1204117703899275,0,0.18256436956164696,30.0,68.0,-38.0,-0.43151185873993825,-1.056152921445559,-5.100271325285135,-0.47647759143779034,-0.0016717166440287645,0.0031344687075542943,-0.004806185351582837,0.008535300316122152
2016-04-12,1460433600,2016-04-27,1461729600,0.25,0,94.52971424206585,100.00067360889766,94.33,95.39,93.86,95.19,922012.0,95.99,96.63,94.9,95.23,1339457.0,3.2261231374962165,-2.9888029652816073,1.4137701704644883,-1.3490146662466316,0,7.77039233747886,0.9755063089810218,22.118507322831004,19.72893966942675,0.49151365713211703,1.7075061636632447,9.384072383724167,-0.8579614169506721,0,0.15988696187800808,26.0,68.0,-42.0,0.1186600861072975,-0.5043446323535079,-4.440683640764263,-0.49299390648116503,0.007980678357660365,0.014701249606216438,-0.003465294550036746,-0.005015149932086405
2016-04-12,1460433600,2016-04-28,1461816000,0.25,1,94.52971424206585,100.00067360889766,94.33,95.39,93.86,95.19,922012.0,94.37,95.58,94.0,95.05,1700308.0,3.411661053876472,-2.6815190233661923,1.6910398036121421,-1.1590391022268705,0,7.228655140159574,1.1493029690326682,19.9889845713585,13.670728298317137,0.6731892736139997,1.7072785417851208,7.08024655783867,-1.0971161370461244,0,0.16283771220867033,22.0,68.0,-46.0,0.36507101525513974,-0.28583755288768486,-4.092671318993908,-0.5068095247130979,-0.007154129405575915,0.0055760126249342346,-0.01104681746449232,-0.0018901606636564372
2016-04-18,1460952000,2016-04-29,1461902400,-0.75,0,91.48951587472142,100.00067360889766,96.93,97.71,96.62,97.56,2200265.0,94.95,95.01,92.5,93.04,2725349.0,5.71313168754655,-0.8926243788621235,3.8268486672398865,0.9237962166810121,0,1.546860814992428,-2.402181894471826,15.61988356991518,5.434182853831494,2.645823319481451,1.8153472624345781,5.61200382759705,-1.7324779687853424,0,0.12252054706794382,18.0,64.0,-46.0,2.4102536543422275,1.6904105102579763,-1.9414824816330878,-0.6338393643303388,0.020528804815133306,0.02117368873602743,-0.005803955288048224,-0.02114676486059963
2016-04-18,1460952000,2016-05-02,1462161600,-0.75,0,91.48951587472142,100.00067360889766,96.93,97.71,96.62,97.56,2200265.0,92.87,93.77,91.9,93.76,1647397.0,4.91934150823954,-1.7570121567037091,2.9744382821387916,0.03821814562002146,0,3.2952800454462974,-0.8460236886632796,12.910008773189372,0.3610888214546293,1.7223351022953608,1.8151959568959275,4.592799846816156,1.049593357332371,0,0.15606998121743143,14.0,-8.0,22.0,1.5811646757679227,0.8228913150158661,-2.5888252389216575,-0.6495037001423134,-0.009492320819112665,0.00010665529010234209,-0.0198378839590444,0.007738607050730817
2016-04-18,1460952000,2016-05-03,1462248000,-0.75,0,91.48951587472142,100.00067360889766,96.93,97.71,96.62,97.56,2200265.0,92.79,92.9,91.89,92.29,1539121.0,6.731105138413554,-0.5094126473527751,4.532090872972859,1.5426012207895354,0,-0.5403435662423846,-1.735519591141392,8.975035727656708,-4.648404466062992,3.126579349950106,1.857116579679975,3.6522313418260772,-0.9796635169385655,0,0.1019777876291303,10.0,-40.0,50.0,3.1108462455303965,2.197489024875992,-0.9965782339265985,-0.7328254787570887,0.005417705060136502,0.006609600173366648,-0.004334164048109268,-0.01567832764505117
2016-04-18,1460952000,2016-05-04,1462334400,-0.75,0,91.48951587472142,100.00067360889766,96.93,97.71,96.62,97.56,2200265.0,91.46,92.17,91.03,91.52,1182913.0,7.851464979762497,-0.21706812661565777,5.263876748251747,2.2689029720279734,0,-2.4281065144784506,-3.1226844500899786,4.995688271106068,-8.995832693411678,3.762637799081773,1.8373132795350307,3.2739678364689766,-0.7544168359446175,0,0.06107071243451591,6.000000000000007,-43.99999999999999,50.0,3.8171984265734267,2.7661499854366127,-0.1572004094776389,-0.807843144286684,-0.000655594405594484,0.007102272727272707,-0.005354020979020935,-0.008343265792610355
2016-04-18,1460952000,2016-05-05,1462420800,-0.75,0,91.48951587472142,100.00067360889766,96.93,97.71,96.62,97.56,2200265.0,91.9,92.32,91.22,91.52,871302.0,8.012723394870292,-0.5651709473178386,5.148237179487182,2.194784382284382,0,-2.4281065144784506,-1.8341735492867186,1.8475726957634193,-10.191522924380735,3.5277018584374673,1.7919282650627477,2.7875593004784136,0.5556360838797479,0,-0.0002760696997971443,2.0,-44.0,46.0,3.723776223776227,2.5027071296807435,-0.15103568753733043,-0.8227425635487109,0.004152097902097918,0.00874125874125875,-0.003277972027971976,0.0
2016-04-18,1460952000,2016-05-06,1462507200,-0.75,1,91.48951587472142,100.00067360889766,96.93,97.71,96.62,97.56,2200265.0,91.11,91.63,90.67,91.63,1239306.0,8.011312151675227,-1.0998202822001275,4.869766088253471,1.917676161373663,0,-2.113259665694315,-2.7901548907277847,-0.5748684187718807,-17.651158605655766,2.9675726327262026,1.7367709987691604,2.656285837428044,0.7889837344084155,0,-0.014669462266275711,-2.0,-44.0,42.0,3.4557459347375357,2.153020882981366,-0.2602787682019141,-0.7902848388103816,-0.005674997271635895,0.0,-0.010476918039943217,0.0012019230769231282
2016-04-21,1461211200,2016-05-09,1462766400,-0.75,1,88.71774184411935,97.45658121816977,94.15,95.24,92.8,92.93,3774280.0,91.48,91.56,90.76,90.89,1261825.0,9.074865308906752,-0.8352349865390494,5.524443466461307,2.576924487475708,0,-4.066605532819906,-3.442048231169654,-3.3836940806139295,-24.684677010833127,3.3037301111799025,1.6942176933057502,2.5343890503098443,-0.8022263890658087,0,-0.08936135397154633,-6.0,-56.0,50.0,4.119815161183851,2.7004619747806373,0.5301349329858311,-0.7822898564767817,0.0064913631862690835,0.007371548025085328,-0.0014303003630762312,-0.0080759576557895
2016-04-29,1461902400,2016-05-10,1462852800,-0.25,1,88.71774184411935,94.52971424206585,94.95,95.01,92.5,93.04,2725349.0,91.19,92.06,90.74,91.98,859374.0,7.755768675872758,-2.3328506502149935,4.087482786112901,1.19772414292963,0,-0.8505001265700329,-3.372202962496054,-4.369465659356914,-20.10688117145162,1.6745944804483344,1.6570658216687448,1.9102320920646818,0.551670046395224,0,-0.04025038597568388,-10.0,-56.0,46.0,2.7114590128288825,1.3421420748136086,-0.6352586796586053,-0.6714774357352,-0.008588823657316835,0.0008697542944118286,-0.013481191563383454,0.011992518428870058
2016-05-09,1462766400,2016-05-11,1462939200,0.25,0,88.71774184411935,94.23302033170906,91.48,91.56,90.76,90.89,1261825.0,91.99,92.38,90.84,90.87,2294741.0,8.966733462497857,-1.6298786149133804,5.123252998789468,2.1728843402663216,0,-3.79660328780691,-5.619027835479847,-6.387882410097897,-17.99731225179177,2.641385547495773,1.6785516873415587,1.0109992794439755,-1.4597544485869254,-1,0.010418823359807997,-14.0,-64.0,50.0,3.668427423792224,2.334341750792987,0.5558201925191639,-0.6408984342052817,0.012325299878947815,0.016617145372510134,-0.0003301419610433065,-0.01206784083496415
2016-05-09,1462766400,2016-05-12,1463025600,0.25,0,88.71774184411935,94.23302033170906,91.48,91.56,90.76,90.89,1261825.0,91.56,91.83,89.98,90.93,1182892.0,8.674979721166622,-2.08859458974689,4.819274900106294,1.7454818725026513,0,-3.613747094331856,-5.781784271059992,-7.945515307853261,-27.949975394425422,2.229562084281639,1.7029503808058444,0.7776533480099133,0.7509779412752483,0,-0.08686452597740689,-18.0,-64.0,46.0,3.293192565709873,2.0509293192547915,0.47027376452402336,-0.5860837834085701,0.006928406466512715,0.00989772352358953,-0.010447597052677948,0.000660283922086613
2016-05-09,1462766400,2016-05-13,1463112000,0.25,1,88.71774184411935,94.23302033170906,91.48,91.56,90.76,90.89,1261825.0,91.0,91.42,90.07,90.26,1638302.0,9.09942928400784,-1.7506590646415958,5.271622719550905,2.1196174015806264,0,-5.395839172545557,-7.159020777617768,-9.951442274292685,-33.43094738916216,2.681475421220455,1.6998833652359702,0.5609749831068562,-1.0476132645492477,0,-0.13719436503699897,-21.999999999999996,-72.0,50.0,3.674385109683115,2.54098163875625,1.1683758199624492,-0.5642032628376241,0.008198537558165242,0.012851761577664433,-0.0021050299135830786,-0.007368305289783383
2016-05-10,1462852800,2016-05-16,1463371200,-0.25,1,88.74397602180433,94.26615620156502,91.19,92.06,90.74,91.98,859374.0,90.64,91.91,90.59,91.5,2045801.0,6.98201291799046,-3.1055101857500205,3.53169398907103,0.3972677595628369,0,-1.5384332962259322,-6.211562115621158,-9.939820452786078,-32.616823526566336,0.8855376568850772,1.6858775512104467,-0.17504536977784824,1.3140913236369482,0,-0.11643674128823918,-26.0,-72.0,46.0,1.9382513661202267,1.041702342736727,-0.19470213779474932,-0.4409345588418897,-0.009398907103825183,0.004480874316939776,-0.009945355191256833,0.013738089962330946
2016-05-11,1462939200,2016-05-17,1463457600,0.25,0,88.74020699979522,94.26615620156502,91.99,92.38,90.84,90.87,2294741.0,91.21,91.59,90.26,90.53,1617343.0,7.199325406386592,-1.9888979237841653,4.264332265547338,1.044405169557038,0,-4.166450062988872,-7.838745800671895,-10.986570990376164,-32.779815028177154,1.6199047800842408,1.6871686948011124,-0.602036910387092,-1.0414410260370206,0,-0.12101672462335748,-30.0,-72.0,42.0,2.6052137413012275,1.922014550739732,0.8403785475071999,-0.4006117128318928,0.007511322213630711,0.011708825803601108,-0.0029824367612945046,-0.010601092896174835
2016-05-11,1462939200,2016-05-18,1463544000,0.25,0,88.74020699979522,94.26615620156502,91.99,92.38,90.84,90.87,2294741.0,90.46,91.19,89.73,90.0,2768971.0,6.852328790613498,-1.3034399017246159,4.467407407407393,1.2018518518518704,0,-5.552746606868041,-8.003679852805886,-12.403903514873742,-33.509268827242224,1.753176014374617,1.6917555279559369,-0.6027568184132299,-1.7518745000398968,-1,-0.21610457161670693,-34.0,-84.0,50.0,2.774444444444441,2.2820103535930514,1.3779725545502401,-0.3853986666885164,0.005111111111111066,0.013222222222222246,-0.0030000000000000027,-0.005854412901800554
2016-05-11,1462939200,2016-05-19,1463630400,0.25,0,88.74020699979522,94.26615620156502,91.99,92.38,90.84,90.87,2294741.0,89.67,90.22,88.79,89.37,1227867.0,7.670954993605662,-1.071424949966854,4.912535899444251,1.7369736302264016,0,-7.173533667463644,-3.830840417518565,-14.229744079238435,-32.282728716459985,2.0577775839737598,1.696281884068196,0.019640313739792248,-0.7774377462925847,0,-0.16945471861128156,-38.0,-88.0,50.0,3.2997650218193826,2.717028567509132,2.0105573361167757,-0.3922248145233312,0.0033568311513929583,0.009511021595613567,-0.006489873559359927,-0.006999999999999895
2016-05-11,1462939200,2016-05-20,1463716800,0.25,0,88.74020699979522,94.26615620156502,91.99,92.38,90.84,90.87,2294741.0,89.99,90.54,89.61,89.85,1005779.0,6.64390491970957,-1.7657747026811705,4.015396030421073,0.9981450565757797,0,-5.548979489984902,-5.817610062893094,-15.024680862140727,-26.894506775932143,1.2762552774579774,1.6597163969546636,0.21177152737790905,0.6363465318712571,0,-0.2767666361400701,-42.0,-88.0,46.0,2.4390651085141997,1.9617860553236852,1.4081185302975712,-0.34077529769550663,0.0015581524763494947,0.00767946577629397,-0.002671118530884753,0.0053709298422288665
2016-05-11,1462939200,2016-05-23,1463976000,0.25,0,88.74020699979522,94.26615620156502,91.99,92.38,90.84,90.87,2294741.0,89.83,90.37,89.5,90.04,2096686.0,5.988774902267906,-2.0827331430497793,3.507144972604763,0.524026358655405,0,-4.899010792340583,-5.12118018967334,-15.396287902726122,-27.450056727683176,0.8408209002035818,1.6069300449505732,0.46659653011369073,1.317903519867426,0,-0.23072227550182955,-46.0,-88.0,42.0,1.9530208796090704,1.5802834001532773,1.1473012097922748,-0.2732272186047384,-0.0023322967569969766,0.003665037760995027,-0.0059973345179921145,0.002114635503617235
2016-05-11,1462939200,2016-05-24,1464062400,0.25,1,88.74020699979522,94.26615620156502,91.99,92.38,90.84,90.87,2294741.0,90.06,91.49,90.06,91.16,1144177.0,3.923080042194954,-3.02136876531911,2.011481643995893,-1.008483252888695,0,-1.182952580265919,-4.753944206457003,-14.029108626485357,-22.007847672287227,-0.43923585600479953,1.5874316399858523,-0.5810573957945273,0.717379130252925,0,-0.1943447647907849,-46.0,-84.0,38.0,0.45085563843791476,0.30061515579421894,-0.09166235501569986,-0.13915668704253803,-0.012066695919262793,0.003620008775778727,-0.012066695919262793,0.012438916037316616
2016-05-16,1463371200,2016-05-25,1464148800,-0.25,1,88.74020699979522,94.26615620156502,90.64,91.91,90.59,91.5,2045801.0,91.58,91.98,91.11,91.63,856539.0,2.670083908124113,-3.1917471188629207,1.2223071046600467,-1.6883116883116855,0,0.302998146272472,-3.780321327312831,-12.21345647162358,-22.06203863934587,-0.9556064950561023,1.5343021530023186,-2.0423566392402748,0.5371971619118426,0,-0.1679531725595686,-34.0,-68.0,34.0,-0.260831605369404,-0.19349169566950764,-0.5804334726143452,-0.01158368507407892,-0.0005456728145804002,0.0038197097020626902,-0.005674997271635895,0.005155770074594113
2016-05-17,1463457600,2016-05-26,1464235200,0.25,1,88.74020699979522,94.02010178775427,91.21,91.59,90.26,90.53,1617343.0,91.66,92.21,91.02,91.11,716564.0,2.393267110298254,-2.208874617706897,1.5903852486005974,-1.2940401712215959,1,-1.3421824524640016,-4.145186743819041,-11.340014184441491,-21.35415572029831,-0.400521330241844,1.5261343287037896,-3.6239500357042687,-0.4521465641791699,0,-0.26136878921101775,-38.0,-68.0,30.0,0.09219624629568557,0.34031953138291726,-0.012497462814181404,0.04207611803745426,0.006036658983646026,0.012073317967292274,-0.0009878169245967072,-0.005674997271635895
2016-05-25,1464148800,2016-05-27,1464321600,-0.25,1,88.98668609833378,94.02010178775427,91.58,91.98,91.11,91.63,856539.0,90.77,91.96,90.77,91.87,815719.0,1.3199925847623462,-2.918991169719348,0.5701897608939959,-2.146692790537358,1,1.1173960290846452,-1.2575236457437677,-9.482784243355177,-16.668885432972445,-1.2119521393291137,1.4979235277695415,-4.85024250501575,0.5219058629156382,0,-0.19094878646847724,-42.0,-68.0,26.0,-0.7994992924785009,-0.443108669298951,-0.8067225316277984,0.12818633419682113,-0.011973440731468443,0.0009796451507564363,-0.011973440731468443,0.008341565141038343
2016-05-26,1464235200,2016-05-31,1464667200,0.25,0,88.98668609833378,93.9665720956528,91.66,92.21,91.02,91.11,716564.0,91.91,92.1,90.69,91.09,2258492.0,1.5838115712648744,-1.77702707241761,1.304570571229931,-1.385077030043547,1,-1.3979533808365687,-2.84769624573379,-8.941608283810778,-22.830044084107172,-0.3410496454233396,1.513405147538887,-6.139384476427093,-1.4716720470474856,0,-0.2585599658053387,-46.0,-68.0,22.0,-0.09660775057636783,0.37040317241378773,0.04099234972272825,0.13155043589989246,0.00900208584916018,0.011087935009331362,-0.004391261389834256,-0.008490257973223003
2016-05-26,1464235200,2016-06-01,1464753600,0.25,1,88.98668609833378,93.9665720956528,91.66,92.21,91.02,91.11,716564.0,90.78,91.54,90.09,91.35,1164834.0,1.125992384516067,-1.9907980769079785,0.9655172413793167,-1.764641488779418,1,-0.5255925546783047,-1.0185285513056797,-8.10674655370636,-21.318640769924173,-0.6828360551305934,1.5146836918923485,-6.739797476382769,0.7753971018302326,0,-0.12356685287462789,-46.0,-64.0,18.0,-0.4324028461959415,0.07665987673173902,-0.23418533250139717,0.14894506466722213,-0.006239737274220003,0.002079912424740149,-0.013793103448275779,0.002854319903392133
2016-05-27,1464321600,2016-06-02,1464840000,-0.25,1,89.0081065267137,93.9665720956528,90.77,91.96,90.77,91.87,815719.0,90.82,91.53,90.42,91.53,847237.0,0.9285417428349945,-2.1838678654177386,0.7427437270111739,-1.9787683455333536,1,0.09171069710015445,0.010926573426579017,-7.142962374953223,-16.631420871407926,-0.8702452885871281,1.4903486899742147,-7.2973238334844694,0.5725920689459414,0,-0.08526853555292832,-46.0,-60.0,14.0,-0.6276630612913863,-0.10870507455301492,-0.41350391408711573,0.1687770117624311,-0.007757019556429712,0.0,-0.012127171419206828,0.0019704433497538254
2016-05-31,1464667200,2016-06-03,1464926400,0.25,0,89.0081065267137,93.94492495540153,91.91,92.1,90.69,91.09,2258492.0,91.42,91.51,90.4,91.08,1763441.0,1.3787431362493692,-1.7004383492489126,1.2031547357634196,-1.5329014785536401,1,-1.468653210198319,-0.4807692307692283,-6.953822526478295,-16.849584848351952,-0.3421231971832128,1.4793517494145005,-7.793998635616813,-1.1843407015781466,0,-0.007303212261209559,-42.0,-52.0,10.0,-0.1608476064997717,0.3481786111618703,0.0754448471149658,0.14850719417436387,0.003732981993851636,0.00472112428634186,-0.00746596398770305,-0.004916420845624381
2016-05-31,1464667200,2016-06-06,1465185600,0.25,0,89.0081065267137,93.94492495540153,91.91,92.1,90.69,91.09,2258492.0,91.45,92.1,91.09,91.47,1038296.0,0.9221898076149415,-2.1127440877067585,0.7876899529900498,-1.9421668306548554,1,-0.04644954645768706,-0.17461530066571712,-6.1753322714641925,-20.34899385415912,-0.7863139799433583,1.4474782093869534,-9.003303153884419,0.7013453643223219,0,-0.06109109978896088,-46.0,-52.00000000000001,6.000000000000007,-0.5952771400459085,-0.07208710105949478,-0.33747177000358874,0.1574333043867624,-0.0002186509238001344,0.006887504099704733,-0.004154367552202887,0.0042819499341237854
2016-05-31,1464667200,2016-06-07,1465272000,0.25,1,89.0081065267137,93.94492495540153,91.91,92.1,90.69,91.09,2258492.0,91.49,91.67,90.83,91.17,1372131.0,1.2739443894349165,-1.7795931774134317,1.1299404043727748,-1.6132865343131897,1,-1.1396716710767762,0.30806469358565425,-5.958696635163166,-19.97791105320111,-0.4265219576504222,1.414320824177847,-9.820269959343378,-0.9249606322567424,0,-0.025218140589033374,-46.0,-48.0,2.0,-0.2528243939892576,0.23228070243223442,-0.009153036088420663,0.13979792469797747,0.0035099265109135303,0.005484260173302724,-0.003729296917845848,-0.003279763857002238
2016-06-02,1464840000,2016-06-08,1465358400,-0.25,0,89.06420744266131,94.05228796846635,90.82,91.53,90.42,91.53,847237.0,91.36,94.12,90.95,93.86,2196309.0,-1.0493170897633064,-4.973482825003373,-1.5961716030968063,-4.457880531287742,1,7.615364151355216,2.0439225918677923,-1.4658371333790288,-7.0492897598934405,-2.9269817242085594,1.5168999300050428,-8.963024837811904,1.4608426338314735,0,0.16751894700834977,50.0,52.0,-2.0,-3.0113999573833325,-2.388885370727337,-2.762121648159507,0.2969349805312767,-0.026635414447048755,0.0027700831024930483,-0.031003622416364784,0.02950531973236803
2016-06-02,1464840000,2016-06-09,1465444800,-0.25,0,89.06420744266131,94.05228796846635,90.82,91.53,90.42,91.53,847237.0,93.23,93.47,92.65,93.42,2772653.0,-0.15743193954963886,-4.678791567194125,-1.0740027117676476,-3.872118746877902,0,5.965688242988328,2.8062066688676097,1.3897322561471046,3.557023482005498,-2.055398560363969,1.5077002145407474,-8.16701151067554,-1.8212302332049735,0,0.287604530404184,46.0,52.0,-6.0,-2.418111753371889,-1.7454174373963554,-2.2137813536414512,0.3549525662879552,-0.0020338257332477294,0.0005352172982231451,-0.008242346392635325,-0.004687832942680603
2016-06-02,1464840000,2016-06-10,1465531200,-0.25,1,89.06420744266131,94.05228796846635,90.82,91.53,90.42,91.53,847237.0,92.86,92.94,92.02,92.41,1583668.0,1.084380500724592,-3.627395325959938,0.04039966814559648,-2.687660065649439,0,2.344302168082322,1.6276256461013852,2.0905964868328897,-2.815216721283477,-0.8262712743614884,1.5235221934478,-8.181993147713833,-1.0398754493348155,0,0.29145733428667947,42.0,52.0,-10.0,-1.2715074126176802,-0.60758268947896,-1.1001188753449611,0.31061753367478606,0.004869602856833799,0.005735310031381946,-0.004220322475922522,-0.0108113894241062
2016-06-03,1464926400,2016-06-13,1465790400,0.25,0,88.95761926759401,94.05228796846635,91.42,91.51,90.4,91.08,1763441.0,92.16,92.42,91.03,91.1,1737342.0,2.5347575837337644,-2.146173610078421,1.532381997804606,-1.2392974753018535,0,-1.904654875794094,0.930644803899833,0.6548923519532925,-2.063518884184681,0.7779891389898381,1.5440276906497146,-9.222032978154962,-1.1384983249675749,0,0.19456671702715894,38.0,52.0,-14.0,0.1942919868276789,0.7434072393705264,0.3094127809860652,0.18460071910087614,0.011635565312843044,0.014489571899012121,-0.0007683863885838971,-0.01417595498322699
2016-06-03,1464926400,2016-06-14,1465876800,0.25,0,88.95761926759401,94.05228796846635,91.42,91.51,90.4,91.08,1763441.0,90.78,91.24,90.04,90.59,1278791.0,3.081412291420264,-1.6651411798185478,2.058174191411851,-0.7158626779997803,0,-3.4530418402040297,-0.9945355191256793,-1.2111262491823238,-7.921874682530529,1.3193772088562383,1.5364294340564677,-9.65482060005276,-0.8411965725247847,0,0.15786188215177882,34.0,52.0,-18.0,0.7081355558008653,1.1857524433088997,0.8398511096198575,0.06462674436034337,0.002097361739706427,0.007175184898995379,-0.006071310299149979,-0.005598243688254567
2016-06-03,1464926400,2016-06-15,1465963200,0.25,0,88.95761926759401,94.05228796846635,91.42,91.51,90.4,91.08,1763441.0,90.77,91.06,90.09,90.2,1139054.0,3.5378478739880705,-1.2872935502630298,2.460458240946025,-0.28566149297856214,0,-4.628825204267521,-0.3645200486026713,-3.24132638110305,-12.601609498693499,1.6856653330287799,1.5096664963614828,-10.05669482038643,-0.752340715588071,0,0.10503593724824808,30.0,52.0,-21.999999999999996,1.1252771618625275,1.4686564053150448,1.2258213749408071,-0.03775963920332637,0.006319290465631955,0.009534368070953425,-0.0012195121951219523,-0.004305110939397339
2016-06-03,1464926400,2016-06-16,1466049600,0.25,1,88.95761926759401,94.05228796846635,91.42,91.51,90.4,91.08,1763441.0,89.33,90.53,88.88,90.48,917255.0,3.1953502460021923,-1.5176314131109478,2.134910109048022,-0.6237105806071384,0,-3.6054965192478576,0.5333333333333378,-4.4299846550325945,-12.933588984287312,1.2960795641768925,1.5277527264379465,-9.511711867126264,0.6056528879432383,0,0.1744036551812308,26.0,52.0,-26.0,0.8388594164456151,1.0446840908955721,0.87678033342074,-0.08091130132014274,-0.012709991158267098,0.0005526083112290525,-0.017683465959328126,0.0031042128603104846
2016-06-08,1465358400,2016-06-17,1466136000,-0.25,0,88.95761926759401,94.05228796846635,91.36,94.12,90.95,93.86,2196309.0,90.52,91.58,90.2,91.52,2001499.0,1.9451674237441523,-2.324319521646231,1.061152389277396,-1.660657051282044,1,0.052621311926102976,2.405728991831701,-3.7714880417342243,-9.58215294749877,0.09504313690491983,1.5102115594915784,-10.033791300392366,1.3041535280924976,0,0.2164641973207187,22.0,52.0,-30.0,-0.1895760489510394,-0.09368895982120762,-0.25897625637863086,-0.03598786844461316,-0.010926573426573438,0.000655594405594373,-0.014423076923076872,0.011494252873563093
2016-06-08,1465358400,2016-06-20,1466395200,-0.25,1,88.95761926759401,94.05228796846635,91.36,94.12,90.95,93.86,2196309.0,92.45,92.83,91.63,91.72,1312107.0,1.6938362943348437,-2.304390153907434,0.9678005524058904,-1.7775112661724108,1,0.7331960241314164,2.0812465219810847,-2.9360530013988013,-1.56205238229456,-0.0559804031937432,1.5013000007948885,-10.675924809660202,0.8488973166706654,0,0.21961907670490513,18.0,52.0,-34.0,-0.30527692978628806,-0.281869176610968,-0.45778153506512353,0.008259553115142232,0.007959005669428754,0.012102049716528507,-0.0009812472743131462,0.0021853146853147987
2016-06-13,1465790400,2016-06-21,1466481600,0.25,0,88.95761926759401,93.97737798936546,92.16,92.42,91.03,91.1,1737342.0,91.91,91.91,91.22,91.41,1496940.0,1.9871772828266927,-1.7716647568448423,1.3847864930897344,-1.3501440396747313,1,-0.3701560356403064,1.5215459795646271,-2.7151203840336327,-2.3252035766645136,0.3112135099269153,1.4527091979212914,-11.606616030077873,-0.9620521970418942,0,0.14481537846177628,14.0,52.0,-38.0,0.10775626299093233,0.050943797596161744,-0.11548880124510674,0.017197907185826256,0.005469861065528825,0.005469861065528825,-0.0020785472049009712,-0.0033798517226341085
2016-06-13,1465790400,2016-06-22,1466568000,0.25,1,88.95761926759401,93.97737798936546,92.16,92.42,91.03,91.1,1737342.0,91.7,91.7,91.08,91.2,1475520.0,2.222525994738646,-1.5416049421070426,1.597039473684191,-1.0553728070175339,1,-1.1280622058932366,0.04387889425187171,-2.8492063462672435,-7.493481473753867,0.5377306135553965,1.400609274096028,-12.54007765084288,-0.9415870297765029,0,0.061384429510799386,10.0,52.0,-42.0,0.3404605263157947,0.25453147359391437,0.11001790188147709,0.009879227386882322,0.005482456140350811,0.005482456140350811,-0.0013157894736842701,-0.0022973416475220443
2016-06-17,1466136000,2016-06-23,1466654400,-0.25,1,89.09925721464569,93.99995318876631,90.52,91.58,90.2,91.52,2001499.0,92.78,94.12,92.58,94.09,2250839.0,-0.42916519516519713,-4.792431148760841,-1.380415913841361,-4.022567045736352,0,8.133672591522568,2.6847102477354667,1.537455739685324,1.6300889532022964,-2.2906863517104625,1.4822907819020172,-11.809809081818429,1.415679636972393,0,0.13829488749546476,50.0,96.0,-46.0,-2.610798171963026,-2.555783906268303,-2.8486184483508907,0.19056685207530671,-0.013922839834201284,0.0003188436603251965,-0.01604846423636952,0.03168859649122813
2016-06-21,1466481600,2016-06-24,1466740800,0.25,1,88.17868122596545,93.99995318876631,91.91,91.91,91.22,91.41,1496940.0,91.08,91.44,86.47,86.91,4114275.0,8.536955665779786,1.8496511688767612,6.801863997238527,3.5065009780232543,0,-10.553525781252823,-4.60981231478433,-5.308051367863675,-8.334059829261832,5.123472677467717,2.1163877374780897,-11.006515297985738,-2.493656450494397,-1,-0.00027836718295223747,46.0,-4.0,50.0,5.193303417328281,4.971206969949819,4.974427234741043,-0.16345697277674848,0.047980669658267194,0.052122885743872915,-0.005062708549073758,-0.07630991603783621
2016-06-23,1466654400,2016-06-27,1467000000,-0.75,0,84.5977633378349,93.99995318876631,92.78,94.12,92.58,94.09,2250839.0,85.84,85.84,82.97,83.49,3732513.0,14.395749145103338,3.605209053483321,10.832235397452791,7.200662754022446,0,-16.0287946290659,-9.121584848155011,-13.622656253064902,-11.439765697002265,8.278577142518344,2.3827989300984465,-9.226724665938852,-2.1983096050417346,-1,-0.07589574612091468,42.0,-8.0,50.0,9.00047909929333,8.388175577005754,8.910787972164314,-0.5937420937638467,0.02814708348305195,0.02814708348305195,-0.006228290813271031,-0.03935105281325513
2016-06-23,1466654400,2016-06-28,1467086400,-0.75,0,84.5977633378349,93.99995318876631,92.78,94.12,92.58,94.09,2250839.0,84.55,85.07,83.26,85.07,2053850.0,12.726935981393211,0.5174509940387964,8.396026801457637,4.784883037498531,0,-11.853664036925998,-6.608848391700526,-17.02713952784286,-12.194428592137584,5.514755061088223,2.3234802219692607,-7.574061936181028,1.2117301305639583,0,-0.06846717683232408,38.0,-8.0,46.0,6.622193487716004,5.767937216723482,6.617877019848464,-0.7288284832652916,-0.006112613142118195,0.0,-0.02127659574468066,0.018924422086477488
2016-06-23,1466654400,2016-06-29,1467172800,-0.75,0,84.5977633378349,93.99995318876631,92.78,94.12,92.58,94.09,2250839.0,86.24,86.9,85.92,86.7,1745234.0,10.653877951218746,-1.9549160135024835,6.072279892349087,2.583237216455217,0,-7.879306569596096,-5.090311986863702,-17.342487262882248,-14.984195395738226,2.8795761768875394,2.2677212162448726,-7.072013564073618,1.0308211650136048,0,-0.1233120544117495,34.0,-8.0,42.0,4.349480968858117,3.41950346652753,4.432493634992625,-0.6669565443328812,-0.005305651672433798,0.0023068050749712743,-0.00899653979238757,0.019160691195486246
2016-06-23,1466654400,2016-06-30,1467259200,-0.75,1,84.5977633378349,93.99995318876631,92.78,94.12,92.58,94.09,2250839.0,86.77,88.11,86.28,88.11,2428454.0,8.768841393087556,-3.7977824894444154,4.207997578784102,0.6930730526236033,0,-4.680124945382602,-3.7364798426745347,-15.930997026598604,-7.286852928735975,0.852649591331982,2.220397054679699,-7.2191179989016625,1.4214205514696445,0,-0.023122341373308975,30.0,-8.0,38.0,2.485529451821563,1.596461166188817,2.6530034225353774,-0.4973981272963367,-0.015208262399273642,0.0,-0.02076949267960504,0.01626297577854663
2016-06-24,1466740800,2016-07-01,1467345600,-0.25,1,84.5977633378349,91.60293616669058,91.08,91.44,86.47,86.91,4114275.0,88.25,89.24,88.04,88.42,1428597.0,8.289407854034778,-4.337813192193579,3.710321948277169,0.19754203423056538,0,-3.9894974916015755,-2.920509442248569,-14.567874533404284,-1.503422477541939,0.29107813968269625,2.1515085455308802,-7.892704485966544,0.8597946329924657,0,0.014554473936735946,26.0,-8.0,34.0,1.9757973309206136,1.122144135513949,2.2031770042311365,-0.33829820367494756,-0.0019226419362134983,0.009273919927618168,-0.00429767021035965,0.003518329361025918
2016-06-27,1467000000,2016-07-05,1467691200,0.25,0,84.5977633378349,91.60293616669058,85.84,85.84,82.97,83.49,3732513.0,87.61,87.92,86.12,86.84,2138149.0,10.162058927867946,-3.032855795670798,5.378281897742994,1.710617227084299,0,-6.909402002926711,-5.061768885973538,-14.804617119051407,-2.863517785010046,1.8645555394995768,2.223360706673953,-7.823450272887243,-1.2912883006682707,0,0.0027400654921000884,22.0,-8.0,30.0,3.564601566098574,2.679903766522301,3.9033789039549305,-0.3139380765864149,0.008866881621372613,0.012436665131275948,-0.008291110087517262,-0.017869260348337468
2016-06-27,1467000000,2016-07-06,1467777600,0.25,0,84.5977633378349,91.60293616669058,85.84,85.84,82.97,83.49,3732513.0,86.46,87.15,86.05,87.11,1607402.0,9.699531586817272,-3.6784088684152323,4.810966976619596,1.1248230207017968,0,-6.267085376525067,-4.453219260721731,-14.701361886369282,-3.5414800140220635,1.3495324840546346,2.148348040226938,-7.734861742035076,0.9638640767454079,0,0.08530839660208216,18.0,-8.0,26.0,3.01056135920102,2.136725879490726,3.4408831243239604,-0.2565290352938554,-0.007461829870278991,0.000459189530478854,-0.012168522557685746,0.003109166282818876
2016-06-27,1467000000,2016-07-07,1467864000,0.25,1,84.5977633378349,91.60293616669058,85.84,85.84,82.97,83.49,3732513.0,87.37,87.79,86.73,87.16,1625529.0,8.998079034881542,-3.8638431468594945,4.29994645862017,0.8580006119014882,0,-6.143562401633616,-7.13829107180908,-14.568820869279522,0.8642382277436127,1.164211823575954,2.0806183793304527,-7.984610118541408,0.9761981962989711,0,0.04352835050219907,14.0,-8.0,22.0,2.5671179440110308,1.88021680756043,3.2489339234208074,-0.1948702561285387,0.00240936209270326,0.007228086278109336,-0.0049334557136300194,0.00057398691309829
2016-07-01,1467345600,2016-07-08,1467950400,-0.25,0,84.70330163814926,91.60293616669058,88.25,89.24,88.04,88.42,1428597.0,88.13,90.19,87.96,89.94,1808240.0,5.099343260425272,-6.692627672255384,0.9422948632421537,-2.550033355570392,0,0.2486262867984408,-3.7251123956326313,-11.6124568810163,0.46798565108316836,-2.1037380291361814,2.1129221649764522,-9.071554095266391,1.0798437640019918,0,0.029282223417011102,10.0,-8.0,18.0,-0.7966422059150489,-1.148006479455944,0.05530418045636054,0.04088629226830576,-0.02012452746275295,0.0027796308650211987,-0.02201467645096733,0.03189536484625988
2016-07-01,1467345600,2016-07-11,1468209600,-0.25,1,84.70330163814926,91.60293616669058,88.25,89.24,88.04,88.42,1428597.0,90.2,90.55,90.03,90.19,964375.0,4.483567837636244,-6.872967992864105,0.5183501496839966,-2.9199467790220694,0,0.7791083507791612,-2.4023374093712793,-9.066636367378855,-0.190502180999772,-2.495471462332972,2.004871345994779,-9.929171492456604,0.5810118384652677,0,0.0554187673694848,6.000000000000007,-7.999999999999993,14.0,-1.1947000776139305,-1.2865867045143204,-0.21333419393003794,0.21185332415980862,0.00011087703736567533,0.003991573345160315,-0.001774032597848918,0.0027796308650211987
2016-07-05,1467691200,2016-07-12,1468296000,0.75,0,84.70330163814926,94.93531368633862,87.61,87.92,86.12,86.84,2138149.0,90.98,92.63,90.78,91.96,1530885.0,2.6061098718227527,-8.705500911405139,-1.3765042772219687,-4.7986443381180095,0,4.402507985405158,0.9440175631174528,-5.361855536717881,5.267546470423106,-4.351690731637547,2.015357225997715,-9.911622836436356,0.9357884741565442,0,0.09322287906805178,2.0,-8.0,10.0,-3.0496955197912,-2.8830898748538516,-2.0502925262852756,0.4297691603894611,-0.01065680730752494,0.007285776424532431,-0.012831665941713699,0.019625235613704328
2016-07-05,1467691200,2016-07-13,1468382400,0.75,0,84.70330163814926,94.93531368633862,87.61,87.92,86.12,86.84,2138149.0,92.29,92.68,91.33,92.61,1375737.0,2.1923387770572447,-9.434537243745538,-1.9751286758089464,-5.3894467840045905,0,5.664156045559778,2.22982669168782,-1.8465346962258853,10.445023241040516,-4.9902315346520965,1.9623916396993144,-9.876813280787726,0.8437529553864974,0,0.16775124722249718,-2.0,-8.000000000000007,6.000000000000007,-3.6210992333441396,-3.225225062057305,-2.6304066886315525,0.5932327750790983,-0.0034553503941258112,0.0007558578987150177,-0.013821401576503578,0.007068290561113688
2016-07-05,1467691200,2016-07-14,1468468800,0.75,0,84.70330163814926,94.93531368633862,87.61,87.92,86.12,86.84,2138149.0,93.02,93.05,91.66,91.9,1439133.0,3.1934618652097413,-8.761470570324022,-1.099564744287278,-4.5859630032644105,0,3.9478574144382677,1.8847006651884732,0.3252199653202164,3.7875684834205714,-4.511107540945929,1.9443355874267025,-9.700898940111157,-0.883718198081024,0,0.06168144425220016,-6.0,-8.0,2.0,-2.784004352557133,-2.2416051437615465,-1.8044968333598348,0.62585363914437,0.012187159956474236,0.012513601741022784,-0.002611534276387495,-0.007666558686966751
2016-07-05,1467691200,2016-07-15,1468555200,0.75,0,84.70330163814926,94.93531368633862,87.61,87.92,86.12,86.84,2138149.0,92.23,92.62,91.48,92.44,1479708.0,2.8543239541180156,-9.34610240500507,-1.58499206692629,-4.995853166017596,0,5.057258518240481,2.1662245800176767,2.5512706544852,9.258340446824484,-4.880644360704665,1.8829957086439715,-9.641037206550351,0.9053338442871162,0,0.2415364122732531,-10.0,-8.0,-2.0,-3.245889225443534,-2.5447995824947043,-2.2848587934733757,0.6531003950971606,-0.0022717438338381024,0.0019472090004328813,-0.010385114668974404,0.0058759521218714195
2016-07-05,1467691200,2016-07-18,1468814400,0.75,0,84.70330163814926,94.93531368633862,87.61,87.92,86.12,86.84,2138149.0,92.21,92.63,91.88,92.46,920817.0,2.9733556960080563,-9.405326277881272,-1.574194246160502,-4.916179969716623,0,5.099428484399347,1.0270979020978996,4.380914795588982,20.286558100189183,-4.021618020444606,1.8060579115228463,-9.581038725376436,0.5630448679285487,0,0.39954467442733205,-14.0,-8.0,-6.0,-3.215985290936601,-2.3215105604021318,-2.215564334458392,0.6408767111344147,-0.002703871944624736,0.0018386329223447628,-0.0062729829115293345,0.00021635655560348077
2016-07-05,1467691200,2016-07-19,1468900800,0.75,0,84.70330163814926,94.93531368633862,87.61,87.92,86.12,86.84,2138149.0,91.91,92.19,91.17,91.69,1501099.0,3.8339376187541916,-8.643622426257764,-0.7779837859453949,-4.128403679063524,0,3.080970692316896,-0.03270824247710547,5.134226122836925,12.740210751103213,-2.561231050092289,1.7916313420159777,-9.967885291942602,-0.9149362296154407,0,0.3175395578855554,-18.0,-8.0,-10.0,-2.404842403751786,-1.3582467122035666,-1.3397023730509545,0.5526778637374412,0.0023993892463736177,0.00545315737812202,-0.005671283673246763,-0.008327925589444063
2016-07-05,1467691200,2016-07-20,1468987200,0.75,0,84.70330163814926,94.93531368633862,87.61,87.92,86.12,86.84,2138149.0,92.03,93.17,91.77,93.08,2428655.0,2.5412637363821915,-10.086386211672263,-2.1592536885832914,-5.5359189227904295,0,6.134460817709936,1.8269335958866664,6.996557548051078,14.094217239262917,-3.398569366436334,1.7523872020556708,-9.855011288259805,1.4595314905447807,1,0.3557501223094469,-21.999999999999996,-7.9999999999999964,-14.0,-3.7725612376450357,-2.5616546850619812,-2.702720033929708,0.5580692743051127,-0.011280618822518185,0.0009669101847873396,-0.014073914911903795,0.015159777511178918
2016-07-05,1467691200,2016-07-21,1469073600,0.75,1,84.70330163814926,94.93531368633862,87.61,87.92,86.12,86.84,2138149.0,92.21,93.17,90.99,91.86,2340631.0,3.986428636648597,-8.903694040524059,-0.7378982509615923,-4.329232890630692,0,2.950698626473269,0.723684210526312,7.25821555056845,3.5977625756162936,-1.5970165616291752,1.8183404948333215,-10.243466745273992,-1.382027261062543,0,0.22871318595208298,-26.0,-8.0,-18.0,-2.4586327019377308,-1.1468474508962032,-1.3551930809353223,0.45400256344352186,0.003810145874156179,0.01426083170041359,-0.00947093403004573,-0.013107004727116456
2016-07-08,1467950400,2016-07-22,1469160000,0.25,0,88.17868122596545,94.93531368633862,88.13,90.19,87.96,89.94,1808240.0,91.86,91.86,90.78,91.07,1840881.0,4.371039051383164,-7.927643860870333,-0.03166062735623143,-3.6036382270048506,0,0.9798499779353378,-3.2096928472738977,6.65111201649352,-3.5414196081583,-0.5447065952233885,1.7878130261808463,-10.736452920398131,-1.0928065623257244,0,0.21033436850569764,-30.0,-8.000000000000004,-21.999999999999996,-1.7783024047435987,-0.26177599122975437,-0.47989669319682093,0.3131918033359381,0.008674645876798115,0.008674645876798115,-0.003184363676292823,-0.008600043544524372
2016-07-08,1467950400,2016-07-25,1469419200,0.25,0,88.17868122596545,94.93531368633862,88.13,90.19,87.96,89.94,1808240.0,90.71,90.81,90.01,90.17,1769485.0,5.464119151285601,-6.69845429601223,0.8489519795940907,-2.2962182544083305,0,-1.1983987269297387,3.751006788631924,5.221419248565686,-2.9520911947225486,0.8054568667031958,1.7606502953356074,-11.675646012464318,-1.0431585990040182,0,0.1857451009923593,-34.0,-8.0,-26.0,-0.6171675723633143,0.6638472034809411,0.4932936260652667,0.14899834724317185,0.005988688033714107,0.007097704336253674,-0.0017744260840634185,-0.00988250796090906
2016-07-08,1467950400,2016-07-26,1469505600,0.25,0,88.17868122596545,94.93531368633862,88.13,90.19,87.96,89.94,1808240.0,90.58,90.58,89.82,90.31,2382787.0,4.823732375707166,-5.611020605139146,0.9155501421031147,-1.9911047133946056,0,-0.8426860695532596,8.168642951251655,4.187343586432907,-4.618488687542147,0.8885876270978486,1.6924655414646006,-12.589040916048765,1.3924933516085933,0,0.14538405333184126,-38.0,-8.0,-30.0,-0.3936441147159826,0.4594349328079801,0.32427174087794697,0.044787135587915916,0.002989702137083272,0.002989702137083272,-0.005425755730262494,0.001552622823555616
2016-07-08,1467950400,2016-07-27,1469592000,0.25,0,88.17868122596545,94.93531368633862,88.13,90.19,87.96,89.94,1808240.0,90.41,90.41,89.47,89.75,1846501.0,5.112044945020003,-4.1348861706467375,1.7981429897864416,-1.0297121634168889,0,-2.239842634929822,5.501351827906439,2.742596783223183,-11.700663282303545,1.7083348666638614,1.6561920570200437,-13.214200139581692,-1.0816089787379162,0,0.12541361915182367,-42.0,-8.0,-34.0,0.48857938718663263,0.9828039829451427,0.9129857589198025,-0.061139887001122495,0.007353760445682367,0.007353760445682367,-0.0031197771587744283,-0.006200863691728564
2016-07-08,1467950400,2016-07-28,1469678400,0.25,1,88.17868122596545,94.93531368633862,88.13,90.19,87.96,89.94,1808240.0,89.44,89.94,88.67,89.23,2253656.0,5.54259260873593,-3.110675092205625,2.563039336545998,-0.31379580858455824,0,-3.530805609434303,2.918108419838525,0.9930808220531785,-19.747997741011503,2.2525027290476913,1.6485183414675844,-13.301159771998973,-1.3103366819929687,0,0.05376698705046577,-46.0,-8.0,-38.0,1.2159587582651454,1.4216479039812668,1.4422044641825664,-0.15989742035995133,0.002353468564384009,0.007956965146251216,-0.006275916171691209,-0.005793871866295208
2016-07-12,1468296000,2016-07-29,1469764800,-0.75,0,86.02101663623894,94.93531368633862,90.98,92.63,90.78,91.96,1530885.0,88.82,89.02,87.76,88.58,2671361.0,6.288776223529965,-2.318354006325194,3.337284563859427,0.50368781515769,0,-5.126764959657109,0.5334241289297457,-1.1534760339821744,-25.38329257003427,2.7183938684098337,1.660536714929993,-12.866002741025202,-1.554966674134077,0,0.09584325970509838,22.0,64.0,-42.0,1.9852111086023854,1.959605633311142,2.1008387925862024,-0.2569160814089835,0.0027094152178821496,0.004967261232783793,-0.00925716866109727,-0.007284545556427324
2016-07-12,1468296000,2016-08-01,1470024000,-0.75,0,86.02101663623894,94.93531368633862,90.98,92.63,90.78,91.96,1530885.0,88.06,88.88,87.76,88.55,1695707.0,6.317801369365512,-2.2635947064631807,3.3581780538302297,0.5326557500470557,0,-5.2015137749680775,0.14702555982808804,-2.974401170921442,-31.44773704917364,2.5085008514689378,1.6327937797132237,-12.461928355120985,-0.9817035460199152,0,0.10581106514195135,18.0,64.0,-46.0,2.0271033314511584,1.8042297722434597,2.0516873622118794,-0.30760645716860213,-0.005533596837944632,0.003726708074534235,-0.00892151326933932,-0.0003386769022353242
2016-07-12,1468296000,2016-08-02,1470110400,-0.75,0,86.02101663623894,94.93531368633862,90.98,92.63,90.78,91.96,1530885.0,88.72,88.72,87.43,87.72,1556572.0,7.207725533683515,-1.1224542158541055,4.3638850889192895,1.5697674418604777,0,-7.274230989384812,1.0133578995854393,-5.401220501292936,-36.88985223310311,3.2011051791065057,1.63555351403563,-11.893815877410917,-0.8954428193386821,0,0.025093003012744856,14.0,60.0,-46.0,3.042635658914719,2.5039228607859343,2.898967499143737,-0.37695492169351524,0.011399908800729497,0.011399908800729497,-0.0033059735522115163,-0.009373235460191975
2016-07-12,1468296000,2016-08-03,1470196800,-0.75,0,86.02101663623894,94.93531368633862,90.98,92.63,90.78,91.96,1530885.0,88.09,88.3,87.02,88.26,2597521.0,6.417214924664776,-1.4625355682179304,3.7973034217085626,0.9998866983911228,0,-5.515171750721912,1.3201699001262837,-6.766238596882809,-37.398782949116026,2.181800068418994,1.6130262902347536,-11.127171419420964,1.48570427721852,0,0.14780614059213873,10.0,56.0,-46.0,2.47733967822343,1.6980340302001053,2.1804059357201027,-0.36607319773908487,-0.0019261273510083887,0.0004532064355313725,-0.014049399501472992,0.006155950752394057
2016-07-12,1468296000,2016-08-04,1470283200,-0.75,0,86.02101663623894,94.93531368633862,90.98,92.63,90.78,91.96,1530885.0,88.23,88.67,87.85,88.06,1346605.0,6.538212991609569,-1.015841881003169,4.074305397834792,1.2977893860246752,0,-6.041523967969134,1.0325837540156102,-8.129473986292703,-32.4467312843918,2.1782459069175815,1.5677250128885762,-10.763008859096077,-0.7684383226221251,0,0.08705106005903246,6.000000000000007,44.00000000000001,-38.0,2.7611855553032,1.745293353343385,2.3178690034081626,-0.35186590027216275,0.0019305019305020377,0.006927095162389207,-0.0023847376788553865,-0.0022660321776569736
2016-07-12,1468296000,2016-08-05,1470369600,-0.75,1,86.02101663623894,94.93531368633862,90.98,92.63,90.78,91.96,1530885.0,88.5,88.81,88.28,88.34,1152511.0,6.250196210641178,-1.5603614811867885,3.5980303373330145,1.0227529997736156,0,-5.0810813416910605,-1.7789637536135137,-8.905498628699908,-31.878420020442448,1.6935824848933976,1.5117728906615548,-10.558833137417414,0.6554647362143319,0,0.03537432442999913,2.0,44.0,-42.0,2.344917364727195,1.2872991371071691,1.915386114603109,-0.3048845155699752,0.0018111840615802066,0.005320353180892079,-0.0006791940230925775,0.0031796502384737746
2016-07-22,1469160000,2016-08-08,1470628800,-0.25,1,86.02101663623894,91.59933317728913,91.86,91.86,90.78,91.07,1840881.0,88.7,88.91,88.36,88.72,1326746.0,5.799631493487652,-2.152201376264941,3.0662007814848096,0.49857228734597925,0,-3.7647622522877597,-1.629892449273754,-9.036029246701078,-26.909045252125864,1.0786952615160743,1.4436672541974287,-10.469459111500887,0.7493560375991422,0,0.049590599679372994,-2.0,44.0,-46.0,1.82371505861137,0.7721886457495231,1.4208736140220992,-0.2327471498829209,-0.0002254283137961277,0.0021415689810639904,-0.004057709648331853,0.004301562146252991
2016-07-29,1469764800,2016-08-09,1470715200,0.25,1,86.02101663623894,90.97412165425504,88.82,89.02,87.76,88.58,2671361.0,88.61,89.34,88.48,88.63,1112906.0,5.710623289863648,-2.2321171407042044,2.947271428034142,0.48873594343525895,0,-4.0385962168250416,-3.6211396259243136,-9.2543844918993,-31.104646581691597,0.8225302748478214,1.4112184396617933,-10.82088899502014,-0.6264744925662776,0,-0.0576098130804624,-6.0,40.0,-46.0,1.7392530745797359,0.7912310441842578,1.4641029007497366,-0.17808788673733805,-0.00022565722667267085,0.008010831546880315,-0.001692429200045087,-0.0010144274120830188
2016-08-08,1470628800,2016-08-10,1470801600,-0.25,0,86.41726957046187,90.97412165425504,88.7,88.91,88.36,88.72,1326746.0,88.9,89.23,88.39,88.9,1157996.0,5.017162929500117,-2.5739683288252166,2.4165729283839568,0.022872140982372002,0,-3.046466790269683,-4.006046863189713,-9.037690547284672,-25.4659233059822,0.20686493720327803,1.3739287915747402,-11.071609082257876,0.6600341253641001,0,-0.0312075893758435,-10.0,36.0,-46.0,1.2215973003374643,0.4389144257726656,1.1106130626125292,-0.11386863126018104,0.0,0.0037120359955005178,-0.005736782902137305,0.003046372560081334
2016-08-08,1470628800,2016-08-11,1470888000,-0.25,1,86.41726957046187,90.97412165425504,88.7,88.91,88.36,88.72,1326746.0,89.01,89.49,88.68,88.95,1163379.0,4.69013826437201,-2.6923867185597743,2.148585347573544,-0.17856473674349616,0,-2.857296967257902,-3.210010881392821,-8.774454077057822,-19.879622814255512,-0.03722846641936428,1.3401184489062286,-11.582294932018646,0.6631133243508374,0,-0.012761702588096663,-14.0,-36.0,22.0,0.9988757729061177,0.3460319369215483,1.012452812672123,-0.06080419368282075,0.0006745362563238544,0.006070826306913801,-0.0030354131534569007,0.0005624296962878361
2016-08-09,1470715200,2016-08-12,1470974400,0.25,1,86.41726957046187,90.86720364826981,88.61,89.34,88.48,88.63,1112906.0,88.83,89.06,88.07,88.31,1043525.0,5.02806638695381,-2.0340679722782653,2.670894198467508,0.3438644170158227,0,-5.0185955587061315,-4.467762873215054,-9.411119719687361,-18.897104013093923,0.543589711400557,1.3334891440806884,-11.51334828474393,-0.5934698811781762,0,0.0093276248453174,-18.0,-36.0,18.0,1.4969992073377654,0.9710442515781921,1.6760978386459726,-0.06140870834030404,0.005888347865473875,0.00849280942135655,-0.0027176990148342073,-0.007195053400786966
2016-08-10,1470801600,2016-08-15,1471233600,-0.25,1,86.54895512234414,90.86720364826981,88.9,89.23,88.39,88.9,1157996.0,88.43,88.95,88.33,88.71,1101266.0,4.0468349119950915,-2.3908772972955177,1.9943260812384835,-0.30755645737042414,0,-3.4077245067940325,-4.055807916937054,-9.283029293944598,-12.025195539451431,-0.09332203464472855,1.284188883584515,-11.44932639798884,0.6310611648888067,0,-0.010154927915709683,-21.999999999999996,-36.0,14.0,0.827978807349794,0.46663845235708834,1.1698824339300131,-0.02910985962256102,-0.0031563521587192334,0.002705444707473914,-0.00428362078683342,0.004529498358056827
2016-08-12,1470974400,2016-08-16,1471320000,0.25,0,86.54895512234414,90.719209921522,88.83,89.06,88.07,88.31,1043525.0,88.75,89.47,88.02,88.02,1344066.0,4.503844634038117,-1.684030955328737,2.637658108005752,0.2688782852382303,0,-5.7597105016449035,-4.0026175155415,-10.159723205426703,-11.088284036851071,0.559292511734526,1.3194770232545936,-11.999596825467288,-0.7675038649117,0,-0.03815694726680837,-26.0,-36.0,10.0,1.40990683935469,1.1347607389356114,1.8859869782230163,-0.04737588550924221,0.008293569643262888,0.016473528743467414,0.0,-0.007778153533987142
2016-08-12,1470974400,2016-08-17,1471406400,0.25,0,86.54895512234414,90.719209921522,88.83,89.06,88.07,88.31,1043525.0,87.94,88.34,87.38,87.97,1306021.0,3.6076114121397467,-1.2533997490727984,2.3994922511462136,0.07938312303437556,0,-5.929404715894819,-5.489901160292221,-10.971472007669117,-9.23949074196645,0.4764451672118071,1.3038737058325907,-11.905220089048857,-0.7463424777751242,0,-0.012432181468996543,-30.0,-36.00000000000001,6.000000000000007,1.1771058315334813,1.0786962896339674,1.8676652507062954,-0.055426175863899085,-0.00034102534955104957,0.004205979311128871,-0.006706831874502717,-0.0005680527152919224
2016-08-12,1470974400,2016-08-18,1471492800,0.25,1,86.54895512234414,90.719209921522,88.83,89.06,88.07,88.31,1043525.0,87.97,88.28,87.77,88.12,1114603.0,2.7447016564377265,-1.1593634812221154,1.9063020124073375,-0.22034347102434992,0,-5.260047456244827,-4.071413019812753,-11.379659990222258,-0.048799636729434326,0.2730680835696404,1.2500186504824666,-11.817584548088886,0.6449275031920527,0,-0.0339763774768715,-34.0,-36.0,2.0,0.7926690876078055,0.8202912367242305,1.6278219302392927,-0.04376157134599823,-0.0017022242396732556,0.0018157058556513839,-0.0039718565592374855,0.0017051267477550258
2016-08-15,1471233600,2016-08-19,1471579200,-0.25,0,86.57811617942826,90.719209921522,88.43,88.95,88.33,88.71,1101266.0,87.65,89.05,87.65,88.94,1315996.0,1.2945152597830116,-1.8072204542961714,0.8335207255827868,-1.309497039202455,1,-1.6996048240822148,-2.3388602174151707,-10.139949593028035,8.037324254581897,-0.6403376431044165,1.262465358063778,-12.647364285359936,0.7745126737907846,0,-0.012525170850589375,-38.0,-36.0,-2.0,-0.2563525972565657,-0.0988375192357438,0.6637521122725616,0.022506045724342838,-0.014504160107937869,0.001236788846413317,-0.014504160107937869,0.009305492510213176
2016-08-15,1471233600,2016-08-22,1471838400,-0.25,0,86.57811617942826,90.719209921522,88.43,88.95,88.33,88.71,1101266.0,88.68,89.41,88.32,89.34,1217010.0,0.6438959063255396,-2.142664654926392,0.3251623013208018,-1.8407208417282277,1,-0.0439608664047455,-0.9204835311079055,-8.321606164377087,15.755122225314807,-0.9972035129008816,1.2541876109729295,-13.255622505878089,0.719360367749603,0,0.09201831840297517,-42.0,-36.0,-6.0,-0.7493843743004192,-0.49411108459695186,0.20469752705254507,0.09266920060341693,-0.007387508394895881,0.000783523617640336,-0.011417058428475624,0.004497413986957577
2016-08-15,1471233600,2016-08-23,1471924800,-0.25,0,86.57811617942826,90.719209921522,88.43,88.95,88.33,88.71,1101266.0,89.9,90.67,89.68,90.39,1402039.0,-0.49713966281093747,-3.298634205979866,-0.8269720101781104,-2.9931408341630714,1,4.0243428977238835,0.08858376702469083,-4.7740234857452535,28.504116231067655,-1.8852721414152995,1.2561744939675532,-12.6732776230468,0.8320268935894978,0,-0.00831704966732069,-46.0,-36.0,-10.0,-1.8978869343954017,-1.4928609895004996,-0.9216931041137997,0.2028662042222717,-0.005420953645314697,0.003097687797322779,-0.007854851200354007,0.011752854264607038
2016-08-15,1471233600,2016-08-24,1472011200,-0.25,0,86.57811617942826,90.719209921522,88.43,88.95,88.33,88.71,1101266.0,90.25,90.97,90.02,90.35,1887800.0,-0.283777236000077,-3.358724147508468,-0.7509684560044292,-2.919203099059203,1,3.84879937541821,0.6685236768802165,-1.939486854833828,29.21634465438123,-1.59173998577252,1.2420689087093468,-11.897572542390757,-1.1122575674138675,-1,-0.003494058623874539,-46.0,-32.0,-14.0,-1.8212506917542726,-1.3112258634295415,-0.8434042220040681,0.262355312948782,-0.0011068068622024363,0.006862202545655727,-0.0036524626452684172,-0.000442526828189016
2016-08-15,1471233600,2016-08-25,1472097600,-0.25,0,86.57811617942826,90.719209921522,88.43,88.95,88.33,88.71,1101266.0,90.1,91.03,90.06,90.65,962329.0,-0.28524360824474115,-3.8504430988705565,-1.024269167126306,-3.1522338665195804,0,5.003091285651173,1.5913930292502538,0.9791675783853919,29.018386502453808,-1.7842681963756633,1.2259648859227505,-11.129172566590544,0.5681700099538638,0,0.05947912536238149,-46.0,-28.0,-18.0,-2.067843353557649,-1.4818458637125218,-1.125612840043118,0.30804322302217113,-0.006067291781577611,0.0041919470490898725,-0.006508549365692229,0.003320420586607753
2016-08-15,1471233600,2016-08-26,1472184000,-0.25,1,86.57811617942826,90.719209921522,88.43,88.95,88.33,88.71,1101266.0,90.84,91.42,89.51,89.8,998679.0,0.7899832499398372,-2.9358629826792537,0.04844097995544416,-2.1720489977728192,0,1.1849745237619373,1.3772860690900868,1.733909271904092,22.736769109261772,-0.7441425482339241,1.3010963409287826,-11.120364930272027,-0.5890650939876748,0,-0.003926504023132429,46.0,68.0,-21.999999999999996,-1.0729398663697083,-0.4970077544624303,-0.18227944310787336,0.26859336720539495,0.01158129175946554,0.018040089086859723,-0.0032293986636969807,-0.009376723662438025
2016-08-16,1471320000,2016-08-29,1472443200,0.75,0,86.57811617942826,92.87662009639514,88.75,89.47,88.02,88.02,1344066.0,89.94,91.62,89.94,91.37,1353525.0,-0.43329774220863726,-4.803650928033264,-1.4988508263106013,-3.742475648462289,0,6.989817940524361,3.184641445511019,5.253461332787937,23.163840608553485,-2.270191745794932,1.3296798483405472,-10.926355785840142,0.8045187787441493,0,0.09258981115244501,50.0,76.0,-26.0,-2.6184743351209505,-1.996588768150346,-1.8230263946340415,0.33167540357501146,-0.015650651198424015,0.0027361278318922544,-0.015650651198424015,0.017483296213808508
2016-08-16,1471320000,2016-08-30,1472529600,0.75,1,86.57811617942826,92.87662009639514,88.75,89.47,88.02,88.02,1344066.0,91.16,91.46,90.58,91.1,1103165.0,0.17303512929431974,-4.461728872433753,-1.0598243688254598,-3.265093304061466,0,5.7888676215079755,3.853169174646598,7.47488473082305,23.121607887379113,-1.8246189564834907,1.3073600601045832,-10.746204437439106,-0.657340579722235,0,0.0901356573665453,46.0,76.0,-30.0,-2.1443468715697094,-1.5436401647441471,-1.4719713657062528,0.33753512224931737,0.0006586169045006418,0.003951701427003185,-0.0057080131723380445,-0.0029550180584437813
2016-08-19,1471579200,2016-08-31,1472616000,0.25,0,88.49721188378956,92.87662009639514,87.65,89.05,87.65,88.94,1315996.0,90.93,90.93,89.53,89.91,1779357.0,1.5726973326667633,-3.087545514181599,0.38223408593781016,-1.865569272976657,0,0.8203689516740056,1.8694765465669516,6.820631731602143,14.082400554889034,-0.42084407874341423,1.3547726450115647,-11.65440845826468,-1.056705152195765,0,0.06329987732425113,42.0,76.0,-34.0,-0.757424090757425,-0.2176180207486169,-0.16132319233747694,0.24774026310488756,0.011344678011344866,0.011344678011344866,-0.004226448670893057,-0.013062568605927583
2016-08-19,1471579200,2016-09-01,1472702400,0.25,1,88.49721188378956,92.87662009639514,87.65,89.05,87.65,88.94,1315996.0,90.03,90.27,89.24,90.0,997594.0,1.5274022248659378,-3.0251800026437223,0.38481481481480273,-1.8840740740740642,0,1.1666004167192696,2.2030433795139652,6.465944723909798,14.190791249399012,-0.43333436863775887,1.3384911989435453,-12.186771678134116,0.5958224496235838,0,0.12005986854025906,38.0,76.0,-38.0,-0.7488888888888994,-0.28717179294426387,-0.2509202272178612,0.18382012213040758,0.0003333333333332966,0.0029999999999998916,-0.008444444444444477,0.0010010010010010895
2016-08-29,1472443200,2016-09-02,1472788800,-0.25,0,88.49721188378956,92.87662009639514,89.94,91.62,89.94,91.37,1353525.0,90.64,90.92,90.29,90.9,741710.0,0.7253673011767603,-3.906885452991972,-0.4811147781444731,-2.738540520718729,0,4.535803445768487,2.8978944985284154,7.749994431848413,13.499138901603722,-1.3027864706821646,1.3028718393556091,-12.793476970729788,0.45112567750353616,0,0.1479710496931616,34.0,76.0,-42.0,-1.5907590759075987,-1.1530534684554965,-1.1899648832008438,0.19074189709214812,-0.0028602860286028875,0.00022002200220017087,-0.006710671067106655,0.010000000000000009
2016-08-29,1472443200,2016-09-06,1473134400,-0.25,1,88.49721188378956,92.87662009639514,89.94,91.62,89.94,91.37,1353525.0,91.18,91.69,90.87,91.39,1398864.0,0.4751771574807151,-4.41981004948201,-0.8547616442353245,-3.1296276033118176,0,6.26509559638199,3.009467989179443,9.59397252940082,21.22617938412452,-1.5911315051921378,1.2674125432342729,-12.608146865322803,0.8798863964401783,0,0.24531972944866742,50.0,96.0,-46.0,-1.9723164460006615,-1.522745869543641,-1.6523073031684703,0.2151031801137115,-0.0022978444031075407,0.003282634861582201,-0.005689900426742445,0.005390539053905297
2016-08-31,1472616000,2016-09-07,1473220800,0.25,0,88.49721188378956,92.82150774057702,90.93,90.93,89.53,89.91,1779357.0,91.07,91.54,90.37,90.64,1416602.0,1.4168911175059833,-3.5175089462791505,0.09488084730801916,-2.2330097087378533,0,3.01610647323983,2.2678551280604817,9.527376840087081,20.605255239726134,-0.5299782421944883,1.2788226738749389,-13.01954785846821,-0.9177824603376782,0,0.1837451315284177,46.0,52.0,-6.0,-1.0503089143865765,-0.6404778481771274,-0.8056465260958561,0.16949398342438537,0.004744042365401491,0.009929390997352128,-0.0029788172992055717,-0.008206587153955613
2016-08-31,1472616000,2016-09-08,1473307200,0.25,1,88.49721188378956,92.82150774057702,90.93,90.93,89.53,89.91,1779357.0,90.47,90.76,89.4,89.42,1098043.0,2.8013500437963756,-2.1437790306002285,1.5466338626705323,-0.8711697606799333,0,-1.754173899936795,0.584926884139478,7.051971956061961,14.43012983996988,0.9546445824085765,1.3123161429852046,-13.363264508103311,-0.7203167674268143,0,0.10011625953966664,42.0,52.0,-10.0,0.3287855065980665,0.6470240326459873,0.5262308613809239,0.05203894199417841,0.011742339521359835,0.014985461865354655,-0.0002236636099306466,-0.013459841129744077
2016-09-02,1472788800,2016-09-09,1473393600,-0.75,0,86.14694760926133,92.82150774057702,90.64,90.92,90.29,90.9,741710.0,88.81,88.81,85.57,85.65,2501132.0,7.847521917890646,1.2569731200544823,6.020237400272421,3.212298112473235,0,-12.677691023385428,-3.7099494097807724,-1.5963873222069924,3.748254429520614,4.982008621700615,1.5932908210946388,-11.328645871817326,-1.6246317603670297,-1,-0.09107560548052666,38.0,-12.0,50.0,4.552247518972564,4.593601251485751,4.756870212243044,-0.2671441456875455,0.03689433741973147,0.03689433741973147,-0.0009340338587274788,-0.042160590471930215
2016-09-02,1472788800,2016-09-12,1473652800,-0.75,1,86.14694760926133,92.82150774057702,90.64,90.92,90.29,90.9,741710.0,85.33,87.45,85.28,87.26,1727849.0,5.942431873993883,-0.8163718235698667,4.02761861104743,1.1362594545037723,0,-6.8876497567383765,-1.1889933189899187,-4.990427219343278,-3.7698983714771614,2.7767433734401834,1.6298170203561002,-9.319038189904315,1.1326481506736188,0,-0.06985039155315434,34.0,-12.0,46.0,2.563030025212015,2.4100918964699645,2.7132955715513845,-0.35208645287192997,-0.022117808847123666,0.0021774008709603,-0.022690809076323704,0.018797431406888387
2016-09-07,1473220800,2016-09-13,1473739200,-0.75,0,83.53202096869505,90.68974883702337,91.07,91.54,90.37,90.64,1416602.0,86.37,86.58,85.41,85.91,1619236.0,7.883952418942812,0.13956055975586423,5.53738408411904,2.5365692779265174,0,-10.137874617583506,-3.15635215871942,-9.282658700372206,-11.33612034724569,3.9871890251941977,1.6909987458233318,-7.452973913842232,-1.0588032741873987,0,-0.1121803013676389,30.0,-12.0,42.0,4.011756489349324,3.636578567179072,4.157644778074896,-0.47385616938992137,0.005354440693749352,0.007798859271330505,-0.0058200442323361745,-0.01547100618840258
2016-09-07,1473220800,2016-09-14,1473825600,-0.75,0,83.53202096869505,90.68974883702337,91.07,91.54,90.37,90.64,1416602.0,85.83,86.09,84.89,85.5,1168439.0,8.679574749561226,0.0467410399124617,5.852826510721258,2.8668615984405363,0,-11.075988967042171,-2.8629856850715703,-12.89568369544432,-19.8747227190419,4.077489185551457,1.6779934246431676,-5.490466117851014,-0.7738449917826419,0,-0.08488053809196086,26.0,-24.0,50.0,4.363157894736844,3.739877933400578,4.474482256928411,-0.5512566048080452,0.0038596491228068963,0.006900584795321629,-0.007134502923976549,-0.004772436270515601
2016-09-07,1473220800,2016-09-15,1473912000,-0.75,0,83.53202096869505,90.68974883702337,91.07,91.54,90.37,90.64,1416602.0,85.51,86.28,85.24,85.97,1273664.0,8.239284214156257,-0.8867193659533541,5.158582451242694,2.1796363072389653,0,-9.38945510714671,-2.2735023303398885,-14.828351365761701,-18.964804192448057,3.171645135575133,1.6360272615786917,-3.8886185508456386,0.8472799204203585,0,-0.06754537455895532,22.0,-24.0,46.0,3.6762824241014584,2.870564871915036,3.7502465327397942,-0.5393738062161896,-0.005350703733860596,0.003605909038036481,-0.008491334186344068,0.005497076023391889
2016-09-07,1473220800,2016-09-16,1473998400,-0.75,0,83.53202096869505,90.68974883702337,91.07,91.54,90.37,90.64,1416602.0,85.46,85.62,84.73,85.1,2274285.0,9.591372902625949,-0.4738640894649535,6.0851938895417135,3.0311398354876644,0,-11.46294022594342,-3.4271448025419997,-17.303646700024977,-20.745372384135095,3.6742416112582674,1.638778267427364,-2.1607973980622965,-1.4999763951504834,-1,-0.048073366061581475,18.0,-32.0,50.0,4.558754406580505,3.548691611399562,4.622249723868663,-0.5564392496953241,0.004230317273795636,0.006110458284371401,-0.004347826086956386,-0.01011980923577993
2016-09-07,1473220800,2016-09-19,1474257600,-0.75,0,83.53202096869505,90.68974883702337,91.07,91.54,90.37,90.64,1416602.0,85.71,86.24,85.37,85.84,1408418.0,8.714842272711437,-1.7612076035595408,4.9807781919851095,2.014794967381178,0,-8.776041476101582,-3.4854958398920557,-18.017732233896496,-20.834613402394055,2.3762527538950167,1.6034652486810117,-1.2884017679517648,0.9338295535666205,0,-0.08877532273614563,14.0,-32.0,46.0,3.4768173345759408,2.40307519331202,3.5744383356997673,-0.4867396153848468,-0.0015144454799628226,0.004659832246038942,-0.005475302889096034,0.008695652173913215
2016-09-07,1473220800,2016-09-20,1474344000,-0.75,1,83.53202096869505,90.68974883702337,91.07,91.54,90.37,90.64,1416602.0,85.27,86.58,85.27,85.99,1434062.0,8.513616750606644,-2.3105698846920006,4.6315463038337725,1.6451525371167293,0,-8.232863627484335,-3.749720170136566,-18.333589571121212,-19.949188028547866,1.8480083283460402,1.5951513799844792,-0.8640655234981978,0.9449469256670464,0,-0.09016157528667243,10.0,-32.0,42.0,3.101523432957336,2.0125925590927807,3.2606754433568597,-0.40285412485013516,-0.00837306663565529,0.006861262937550849,-0.00837306663565529,0.0017474370922645477
2016-09-09,1473393600,2016-09-21,1474430400,-0.25,0,83.53202096869505,88.60332406814294,88.81,88.81,85.57,85.65,2501132.0,86.45,87.08,85.99,87.01,1205514.0,7.025976246308076,-3.6286655923602638,3.2065279852890427,0.2436501551545689,0,-4.619788134612428,-3.7393516981966983,-16.96482203569,-13.09345092447407,0.3367670600308088,1.553328741477375,-1.0215901787241854,0.7977705091246746,0,-0.000730425628353845,6.000000000000007,-31.999999999999993,38.0,1.6986553269739062,0.7389374231595554,1.9697732708970648,-0.2580350769268748,-0.006436041834271933,0.0008045052292839916,-0.011722790483852497,0.011861844400511856
2016-09-09,1473393600,2016-09-22,1474516800,-0.25,0,83.53202096869505,88.60332406814294,88.81,88.81,85.57,85.65,2501132.0,87.9,88.5,87.4,87.59,1240944.0,6.084272604731382,-4.348914687160914,2.382311527191078,-0.5780720782433235,0,-2.6639776801918913,-3.0547869396790164,-14.98130600322794,-7.399470235606167,-0.43193854640392715,1.5543332893083872,-2.509847654792452,0.8226846441560621,0,-0.0634675161883235,2.0,-32.0,34.0,0.867678958785234,0.06502370818213876,1.2437870387068415,-0.11010736745024707,0.0035392168055714546,0.010389313848612858,-0.002169197396963085,0.006665900471210184
2016-09-09,1473393600,2016-09-23,1474603200,-0.25,0,83.53202096869505,88.60332406814294,88.81,88.81,85.57,85.65,2501132.0,87.56,88.11,87.28,87.7,1747454.0,5.648974706263104,-4.503022596799028,2.081527936145932,-0.8591790193842854,0,-2.2901788263455245,-3.2542746828461144,-13.229213869895473,-12.94203104102995,-0.6491641396400638,1.5090997609845098,-3.796126453874688,1.1537591784041232,0,-0.09180800261805552,-2.0,-32.0,30.0,0.5729760547320382,-0.054724925126876656,1.073003337871171,0.0022708308620681406,-0.0015963511972634237,0.004675028506271328,-0.00478905359179016,0.0012558511245575055
2016-09-09,1473393600,2016-09-26,1474862400,-0.25,0,83.53202096869505,88.60332406814294,88.81,88.81,85.57,85.65,2501132.0,87.53,87.71,86.63,86.74,1014766.0,6.618987665617993,-3.5996194387330434,2.9780570286680472,0.10049189147645166,0,-5.21065685525047,-3.407572383073499,-12.953594225951075,-19.106578082030325,0.1251666077393736,1.5057517025416185,-4.481229436270457,-0.6741397351950453,0,-0.14947951815181879,-6.0,-32.0,26.0,1.509684113442475,0.9512894898059159,2.1056882284749605,0.018186157465602593,0.009107678118515095,0.011182845284759102,-0.0012681577127046095,-0.010946408209806302
2016-09-09,1473393600,2016-09-27,1474948800,-0.25,0,83.53202096869505,88.60332406814294,88.81,88.81,85.57,85.65,2501132.0,86.62,87.15,86.23,87.0,1437295.0,5.758768525640107,-3.848423698053921,2.3862068965517125,-0.3954022988505699,0,-4.263691695792652,-4.782751450147756,-12.329018231848972,-19.039927812457464,-0.48641507916930493,1.4695531484564694,-4.81979114811848,0.9483308520580118,0,-0.06747476956672674,-10.0,-32.0,22.0,0.955172413793079,0.5877296970823807,1.7299351926882878,0.050622217085068644,-0.004367816091954024,0.0017241379310346527,-0.00885057471264361,0.0029974636845746527
2016-09-09,1473393600,2016-09-28,1475035200,-0.25,0,83.53202096869505,88.60332406814294,88.81,88.81,85.57,85.65,2501132.0,87.4,88.27,86.93,87.95,1379068.0,4.1230803402453375,-4.751846684759258,1.1171119954519497,-1.6867538374076219,0,-0.9055220309360692,-3.457738748627872,-10.351184546775995,-12.885920152690822,-1.669181978325767,1.4586734434372335,-6.163374817307844,0.9113801514230708,0,0.016750116544944182,-14.0,-32.0,18.0,-0.314383172256953,-0.45127524335948976,0.606341331734896,0.1356316100174737,-0.006253553155201819,0.003638430926662828,-0.01159749857873782,0.010919540229885172
2016-09-09,1473393600,2016-09-29,1475121600,-0.25,0,83.53202096869505,88.60332406814294,88.81,88.81,85.57,85.65,2501132.0,88.02,88.28,86.6,86.67,1284080.0,5.338256877127407,-3.3964084866808975,2.457020883812149,-0.4205607476635578,0,-4.866941416936065,-3.603603603603598,-10.360589815241525,-10.66076809328387,-0.19335906544900183,1.5129425914008485,-7.143353906550264,-0.861640844438626,0,0.07714721121548021,-18.0,-32.0,14.0,0.9709241952232617,0.9218856992226279,2.010116870205934,0.10651409471873086,0.015576323987538832,0.01857620860736131,-0.0008076612437983854,-0.014553723706651533
2016-09-09,1473393600,2016-09-30,1475208000,-0.25,0,83.53202096869505,88.60332406814294,88.81,88.81,85.57,85.65,2501132.0,87.17,88.19,87.17,87.77,2205844.0,3.6947000335654394,-4.537812714435887,1.0512323876799172,-1.789145873684987,0,-1.13451361535693,-2.4777777777777823,-8.700847075329083,-0.826381479212948,-1.312856822539004,1.5109682344742343,-8.053334489418226,1.482843417681944,1,0.025299621230400318,-21.999999999999996,-31.999999999999996,10.0,-0.4215563404352167,-0.31028237358417243,0.7029568430627791,0.15903370533130612,-0.006836048763814495,0.0047852341346701355,-0.006836048763814495,0.012691819545401994
2016-09-09,1473393600,2016-10-03,1475467200,-0.25,0,83.53202096869505,88.60332406814294,88.81,88.81,85.57,85.65,2501132.0,87.7,88.35,87.7,87.84,1431092.0,3.0222220121816576,-4.372404161544168,0.815877352762584,-2.0245142683667297,0,-0.9025595253465823,-3.3663366336633684,-7.28109589963072,6.617505809063147,-1.2260567359038106,1.454779684830735,-9.05535323897895,0.9673583967915023,0,-0.0027223306287558705,-26.0,-32.00000000000001,6.000000000000007,-0.6750910746812622,-0.3526087446115156,0.5982864530129177,0.19387405640246336,-0.0015938069216757667,0.0058060109289617134,-0.0015938069216757667,0.0007975390224450596
2016-09-09,1473393600,2016-10-04,1475553600,-0.25,0,83.53202096869505,88.60332406814294,88.81,88.81,85.57,85.65,2501132.0,88.15,88.38,86.45,86.66,1635189.0,3.448738993348371,-2.6398306157808378,2.013039464574206,-0.9941149319178351,0,-4.560072669796703,-5.175620965094653,-7.662412159106423,5.292441731580531,0.2365395549754652,1.528339007699971,-8.948162790670445,-1.1073298755858572,0,-0.06459378806696231,-30.0,-32.0,2.0,0.4044541887837596,0.9085919299249241,1.8908967249969635,0.13559304335978994,0.01719363027925236,0.019847680590814765,-0.0024232633279481774,-0.01343351548269589
2016-09-09,1473393600,2016-10-05,1475640000,-0.25,0,83.53202096869505,88.60332406814294,88.81,88.81,85.57,85.65,2501132.0,86.87,87.24,86.24,86.26,986569.0,3.0050014245475865,-1.772680534216036,2.228727104103868,-0.7726640389520156,1,-5.736663790070402,-4.83230361871138,-8.478195938302745,-0.053133038256504506,0.7594740609084596,1.508558973944746,-8.69319593983359,-0.6809695472252311,0,-0.1361454029064887,-34.0,-32.0,-2.0,0.6161604451657752,1.2454224527721038,2.270697889923227,0.07146928416401543,0.007071643867377686,0.011361001623000133,-0.00023185717597973277,-0.0046157396722823485
2016-09-09,1473393600,2016-10-06,1475726400,-0.25,1,83.53202096869505,88.60332406814294,88.81,88.81,85.57,85.65,2501132.0,86.11,86.92,85.96,86.78,1122482.0,1.7875355638169452,-2.0652493227475617,1.4025889221787082,-1.5347238226934081,1,-3.8293301830015096,-2.952359651084769,-8.342895369129396,2.7799401574167604,0.36857837014994743,1.4714284580072434,-8.247063024435779,0.782604240791574,0,-0.08384433000543766,-38.0,-32.0,-6.0,-0.13885687946530823,0.5779105755914173,1.592860376985314,0.0655942360456877,-0.0077206729661212226,0.0016132749481447828,-0.009449181839133569,0.006028286575469499
2016-09-13,1473739200,2016-10-07,1475812800,0.25,1,82.95583393704038,88.57974001758836,86.37,86.58,85.41,85.91,1619236.0,82.53,82.8,78.56,79.6,7307036.0,12.875279159764233,4.1021077749091575,10.212730318257954,6.8848408710217655,0,-19.165575190491282,-7.063631056625816,-16.742752426877832,-14.145848245531653,7.063952253870198,2.2271870967482874,-5.015312158218279,-4.759173089966386,-1,-0.2152255466561389,-42.0,-92.0,50.0,8.488693467336688,8.73107831732871,10.334809526116999,-0.39500918263223284,0.03680904522613071,0.04020100502512558,-0.01306532663316573,-0.0827379580548514
2016-09-21,1474430400,2016-10-10,1476072000,-0.75,1,79.7985140985495,88.57974001758836,86.45,87.08,85.99,87.01,1205514.0,80.1,80.67,79.16,79.7,3340885.0,13.534305661384849,2.2222815406226744,9.605186114596393,6.364282726892483,0,-18.83038982959279,-8.663763465505388,-22.43645971560098,-21.7059653877657,6.057121641441299,2.2008363575149024,-2.014400639587752,2.1571509853631525,0,-0.24021957959982976,-46.0,-92.0,46.0,7.878293601003762,7.776114505065394,9.79651415250001,-0.6509890436843164,0.005018820577164185,0.012170639899623525,-0.00677540777917196,0.0012562814070353756
2016-10-07,1475812800,2016-10-11,1476158400,-0.75,0,76.61085996280798,86.14694760926133,82.53,82.8,78.56,79.6,7307036.0,79.19,79.19,77.71,78.38,4279399.0,16.35275122782079,2.0766950594973963,10.989835842476808,7.654801394913662,0,-20.79680724012418,-8.764986613898268,-27.748330701444722,-28.389837515374012,6.638428832044781,2.259401587523413,1.0537453169643634,-2.6739180595445715,0,-0.2637982841216725,-46.0,-96.0,50.0,9.2147231436591,8.677730103051402,11.188910416262217,-0.8544332826395679,0.010334268946159852,0.010334268946159852,-0.008548099004848209,-0.01656210790464252
2016-10-07,1475812800,2016-10-12,1476244800,-0.75,0,76.61085996280798,86.14694760926133,82.53,82.8,78.56,79.6,7307036.0,78.24,78.6,77.64,78.08,2234288.0,17.465900011498377,0.8524913819442475,10.927894467213122,7.6107838114754145,0,-21.23101009256017,-8.678362573099417,-31.923228262984367,-33.112869184764335,6.334240660253855,2.1938987975621207,3.9157884317023104,-1.384336985826613,0,-0.2355195581216461,-46.0,-96.0,50.0,9.159195696721298,8.229074712179326,11.160587713683555,-0.9472428848877306,0.002049180327868827,0.006659836065573632,-0.00563524590163933,-0.00382750701709611
2016-10-07,1475812800,2016-10-13,1476331200,-0.75,0,76.61085996280798,86.14694760926133,82.53,82.8,78.56,79.6,7307036.0,77.41,78.43,76.69,78.23,2718153.0,17.598497985777456,-0.6881055532068672,10.245643188887456,6.845413098129455,0,-20.677924274770547,-9.003140630452478,-34.88545394946885,-33.481452722838696,5.245480401921128,2.1921577723904386,6.749321741053539,1.6816199510316077,0,-0.16445318789098878,6.000000000000007,-39.99999999999999,46.0,8.455196216285302,7.257596292380981,10.51813424606081,-0.9349667006263773,-0.010481912309855623,0.0025565639780136262,-0.019685542630704433,0.0019211065573772057
2016-10-07,1475812800,2016-10-14,1476417600,-0.75,0,76.61085996280798,86.14694760926133,82.53,82.8,78.56,79.6,7307036.0,78.76,79.07,78.59,78.64,2584198.0,17.199318606495993,-2.2412819839120743,9.238936927772116,5.908570701932874,0,-19.133450128062904,-7.591069330199758,-36.573363560178535,-26.846387060758076,4.1730743513242174,2.1012593853939756,8.777144679223973,1.5746345229740282,0,-0.19331323303976033,2.0,-40.0,42.0,7.479018311291966,6.0604523331797395,9.55205365263339,-0.8387447482676305,0.0015259409969481386,0.00546795523906396,-0.0006358087487283726,0.005240956154927812
2016-10-07,1475812800,2016-10-17,1476676800,-0.75,0,76.61085996280798,86.14694760926133,82.53,82.8,78.56,79.6,7307036.0,78.64,78.87,78.33,78.69,1997312.0,17.152531440740518,-3.2397089728284385,8.691913415512346,5.405600033888234,0,-18.940061440936276,-8.329450139794973,-37.8401736055149,-27.112237487271386,3.6068711268514306,1.998946585040729,10.721194244592567,1.2046241560233004,0,-0.19895239052515395,-2.0,-40.0,38.0,6.9564112339560324,5.422293301710667,9.110583217567921,-0.7160140185395227,-0.0006354047528275286,0.002287457110179192,-0.004574914220358384,0.0006358087487283726
2016-10-07,1475812800,2016-10-18,1476763200,-0.75,0,76.61085996280798,86.14694760926133,82.53,82.8,78.56,79.6,7307036.0,79.61,79.68,78.8,78.81,1403798.0,16.872320319855532,-4.196263981827343,8.064543416656107,4.837795542020899,0,-18.456286015012452,-8.349808117222924,-38.676274196597475,-27.385434971150104,3.010076010655567,1.943065952561418,11.754393008771387,0.845876216811965,0,-0.25940308318729144,-6.0,-40.0,34.0,6.338028169014095,4.760650955777066,8.593683462119259,-0.5770026711217136,0.010150996066488949,0.011039208222306973,-0.00012688745083122566,0.001524971406786202
2016-10-07,1475812800,2016-10-19,1476849600,-0.75,0,76.61085996280798,86.14694760926133,82.53,82.8,78.56,79.6,7307036.0,78.95,79.13,78.26,78.6,2282600.0,16.851229154974817,-4.676928900521872,7.828456318914334,4.621077184054286,0,-18.8588374715642,-9.66555568325481,-39.51739000300895,-27.917991419256467,2.803459668463674,1.888158270063385,12.877399822861541,-1.3562908102355096,0,-0.23301343698903348,-10.0,-40.0,30.0,6.087150127226465,4.560493841434038,8.535434188702155,-0.45481887573767654,0.004452926208651453,0.0067430025445291975,-0.004325699745546974,-0.0026646364674535183
2016-10-07,1475812800,2016-10-20,1476936000,-0.75,0,76.61085996280798,86.14694760926133,82.53,82.8,78.56,79.6,7307036.0,78.71,80.22,78.56,78.69,2520860.0,16.15795321173637,-5.3573432231736575,7.189604778243734,3.914728682170548,0,-18.46467548367417,-10.16097728051148,-40.06364215283009,-27.753638954488878,1.9985648066505064,1.9019662330943907,12.930502805679446,1.4739891544859636,0,-0.3011391931231969,-14.0,-40.0,26.0,5.400304994281342,4.017961683760632,8.081444246190046,-0.32940541705421866,0.00025416190113092263,0.01944338543652302,-0.0016520523573515522,0.0011450381679389832
2016-10-07,1475812800,2016-10-21,1477022400,-0.75,0,76.61085996280798,86.14694760926133,82.53,82.8,78.56,79.6,7307036.0,77.63,78.63,76.84,78.45,2613851.0,15.821109038639108,-5.55469731142432,6.958997238155916,3.551731463777344,0,-18.963370165394778,-10.547320410490308,-40.703753395081236,-32.60056873447796,1.7252061276513757,1.9399566579883165,13.566273088098953,-1.5028704046169337,0,-0.21312259892668114,-18.0,-40.0,22.0,5.133205863607387,3.9232114437508585,8.082208860121227,-0.22885109620626753,-0.010452517527087424,0.002294455066921497,-0.02052262587635434,-0.0030499428135721818
2016-10-07,1475812800,2016-10-24,1477281600,-0.75,0,76.61085996280798,86.14694760926133,82.53,82.8,78.56,79.6,7307036.0,78.76,79.41,78.72,79.18,2097622.0,14.121735477132958,-6.748661468544952,5.447924560074085,2.1213269344110444,0,-15.63988855246835,-8.715702098224567,-39.908575937816885,-27.16592478331856,0.3324440936403903,1.871382381598333,13.513493443909582,1.191613307177044,0,-0.1577169044221843,-21.999999999999996,-40.0,18.0,3.686537004293996,2.6827017509729387,6.8078725982370685,-0.0867244931658524,-0.005304369790351093,0.002904773932811189,-0.005809547865622711,0.009305289993626564
2016-10-07,1475812800,2016-10-25,1477368000,-0.75,0,76.61085996280798,86.14694760926133,82.53,82.8,78.56,79.6,7307036.0,76.9,78.18,76.12,77.46,4487166.0,15.92927952459145,-5.183087941839034,7.247181340907133,3.6995438505895493,0,-19.308297657386134,-10.965517241379317,-40.60978989467769,-29.007261029916023,2.0290817697174077,2.0584714144391842,14.265686610978356,-2.454633545959352,0,-0.08819408989914805,-26.0,-76.0,50.0,5.373095791376187,4.490127112118557,8.81956032059361,-0.08214731411139198,-0.007229537825974575,0.009295120061967532,-0.01729925122643927,-0.0217226572366761
2016-10-07,1475812800,2016-10-26,1477454400,-0.75,0,76.61085996280798,86.14694760926133,82.53,82.8,78.56,79.6,7307036.0,77.29,78.65,77.29,78.57,2627042.0,13.132612194258115,-6.557583557373803,5.12579016588181,1.6257265283611275,0,-14.62155075261829,-10.665150653780568,-39.11793218102045,-23.551505754987545,0.2669861188565221,2.008072460328342,14.602928320448441,1.4171894116679962,0,-0.04923395583556472,-30.0,-76.0,46.0,3.2875143184421347,2.7268978684396217,6.996631947838637,0.01676782642391883,-0.016291205294641564,0.0010182003309153753,-0.016291205294641564,0.014329976762199825
2016-10-07,1475812800,2016-10-27,1477540800,-0.75,0,76.61085996280798,86.14694760926133,82.53,82.8,78.56,79.6,7307036.0,79.0,79.51,78.75,79.27,2445478.0,11.171015804748507,-7.353682639616693,3.6344140280055512,0.2813170177873303,0,-11.845387261331538,-8.538133148725056,-36.63569791068683,-13.477051389900964,-0.9631637683435486,1.932874346000084,14.27152389258621,1.3032208918478827,0,0.06726232906537978,-34.0,-76.0,42.0,1.9086665825658997,1.646449413362845,5.814464645513453,0.14342341903555056,-0.0034060804844202597,0.003027627097262675,-0.006559858710735389,0.008909252895507258
2016-10-07,1475812800,2016-10-28,1477627200,-0.75,0,76.61085996280798,86.14694760926133,82.53,82.8,78.56,79.6,7307036.0,79.35,80.27,78.36,78.87,2128858.0,10.279771031755075,-6.557189568587873,3.674823549300527,0.19187692827860303,0,-12.806497247002127,-10.140138999658188,-34.97955704676776,-12.221177346064309,-0.5674405429584084,1.9768935701575336,13.42117395833936,-1.1223579215986446,0,0.06838588621775313,-38.0,-76.0,38.0,1.8612907315836082,1.9560620278989234,6.102053766819736,0.21030037295065052,0.006085964244959996,0.017750729047800062,-0.006466337010270107,-0.005046045162104051
2016-10-07,1475812800,2016-10-31,1477886400,-0.75,0,76.61085996280798,86.14694760926133,82.53,82.8,78.56,79.6,7307036.0,79.27,79.35,78.81,79.09,2470501.0,8.218984021991275,-6.169420233901775,2.8180975260251984,-0.64125258144729,0,-11.90371740433195,-9.961293260473587,-33.230302175793085,-10.27039283946629,-0.7850410348798249,1.8793496978290736,12.631563305110141,1.2868111437872867,0,0.08629921204972099,-42.0,-76.0,34.0,1.0247818940447644,1.5131752437954162,5.579193732844587,0.27529106827989436,0.0022758882286002535,0.00328739410797807,-0.0035402705778228016,0.002789400278939924
2016-10-07,1475812800,2016-11-01,1477972800,-0.75,0,76.61085996280798,86.14694760926133,82.53,82.8,78.56,79.6,7307036.0,79.19,79.48,77.91,78.75,2421838.0,7.032207186334176,-5.1147468688738655,2.7026455026454954,-0.7259259259259352,0,-12.774187971898336,-9.127625201938606,-32.11057247283008,-10.504782151769327,-0.3055513431664565,1.8950485068634189,12.270637166289866,-1.2458274078840368,0,0.09606056906424142,-46.0,-76.0,30.0,0.9587301587301624,1.7656015544089456,5.798359958718535,0.29932723786107207,0.005587301587301585,0.009269841269841317,-0.010666666666666713,-0.0042988999873562195
2016-10-07,1475812800,2016-11-02,1478059200,-0.75,0,76.61085996280798,86.14694760926133,82.53,82.8,78.56,79.6,7307036.0,78.85,79.82,78.44,78.45,2298479.0,5.5066466105790965,-3.8125739528353364,2.630337794773723,-0.8597833014659102,0,-13.54778387410746,-9.054022722003248,-31.4752856912956,-3.353279928022957,0.18243440760221574,1.8920658371131973,11.666873342275437,-1.1715646723777768,0,-0.02954134170426713,-38.0,-64.0,26.0,0.8470363288718801,1.9495470732249203,5.959689946314057,0.298304367626981,0.005098789037603524,0.017463352453792158,-0.0001274697259401325,-0.003809523809523818
2016-10-07,1475812800,2016-11-03,1478145600,-0.75,0,76.61085996280798,86.14694760926133,82.53,82.8,78.56,79.6,7307036.0,78.77,79.09,77.84,77.91,1733164.0,2.3313878708749485,-0.377851739441212,2.8293329910580525,-0.7222008300175276,1,-14.928710534448683,-10.22124913574557,-31.48617304221205,-9.878655477996283,0.8388626821191849,1.8836967049708404,11.366303589561177,-0.8848110723714322,0,-0.015176484723024726,-42.0,-64.0,22.0,0.9767680657168683,2.403198678570149,6.431590532597582,0.26563246194801726,0.011038377615196993,0.015145680913875026,-0.0008984725965857088,-0.006883365200764935
2016-10-07,1475812800,2016-11-04,1478232000,-0.75,1,76.61085996280798,86.14694760926133,82.53,82.8,78.56,79.6,7307036.0,78.14,79.54,77.74,78.81,1633667.0,1.0029732759683725,-1.4559614754354442,1.3972423127352869,-1.8041280717337145,1,-10.882361765769069,-0.9924623115577791,-29.753115458682956,-4.505981048351259,-0.3094615907804723,1.892312916866621,10.71183085099262,0.8283381561161928,0,-0.02611297820057017,-46.0,-64.0,18.0,-0.22649409973352874,1.116265745766242,5.01160042428657,0.30612827506408946,-0.00850145920568457,0.009262783910671368,-0.013576957238929155,0.011551790527531747
2016-10-10,1476072000,2016-11-07,1478494800,-0.25,0,76.61085996280798,82.95583393704038,80.1,80.67,79.16,79.7,3340885.0,79.96,80.18,79.46,80.12,2187123.0,-0.4920689007957719,-3.171186216528241,-0.3051672491263133,-3.3555916125811365,1,-5.575752978467925,0.5269761606022606,-25.842705569109704,-3.2040944775346887,-1.8579645807702434,1.8505557313292202,9.583615136784438,1.0957578370085,0,0.06858854671899015,-38.0,-52.0,14.0,-1.8316275586620065,-0.4858871424690818,3.165410522075504,0.41582885328992325,-0.001997004493260235,0.0007488766849725881,-0.008237643534698136,0.016622256058875795
2016-10-10,1476072000,2016-11-08,1478581200,-0.25,0,76.61085996280798,82.95583393704038,80.1,80.67,79.16,79.7,3340885.0,80.02,81.18,79.74,80.79,1819515.0,-0.7493021859269788,-4.243890040833776,-1.0017741469653885,-4.021949911292651,1,-3.0847444565389424,3.0747639704006264,-21.47141247264663,2.941375079600803,-2.544174420599063,1.8314367297254468,7.782922046841385,0.9073480372869844,0,0.10932914314348785,-42.0,-52.0,10.0,-2.4965961133803773,-1.186295026634511,2.219266571140821,0.5213638890717562,-0.009530882534967366,0.00482733011511316,-0.012996658002228156,0.008362456315526678
2016-10-10,1476072000,2016-11-09,1478667600,-0.25,1,76.61085996280798,82.95583393704038,80.1,80.67,79.16,79.7,3340885.0,78.76,81.84,77.5,81.26,3406441.0,-0.7218415026077167,-5.007914835073805,-1.2375912708179442,-4.656247436212993,1,-1.3840828136274155,4.072745901639354,-17.118250257963112,-5.860393637702778,-2.9672154799299193,2.07227510823173,7.2435223015446155,1.660563512738266,1,0.24098675999577343,-46.0,-52.00000000000001,6.000000000000007,-2.864878168840761,-1.590412156648398,1.5641954819053012,0.604803896057813,-0.030765444253014973,0.007137583066699538,-0.046271228156534616,0.005817551677187671
2016-10-11,1476158400,2016-11-10,1478754000,0.75,1,76.61085996280798,85.60202438197247,79.19,79.19,77.71,78.38,4279399.0,81.79,83.75,81.68,82.61,3212179.0,-1.3617791118883673,-7.0125097151301645,-2.5352055844732178,-5.937941330750917,1,3.153624557235858,5.598875111849668,-11.302997010053794,2.7373143289173143,-4.0476888792035055,2.10810692136358,5.504358302117108,1.544292355828823,0,0.16783004079683364,50.0,48.0,2.0,-4.187144413509273,-2.8939774068259396,-0.09180398372660648,0.7248021777433988,-0.009926159060646311,0.013799782108703473,-0.011257716983415933,0.016613339896627943
2016-11-07,1478494800,2016-11-11,1478840400,0.25,0,79.36107820996612,85.60202438197247,79.96,80.18,79.46,80.12,2187123.0,82.14,82.95,81.43,81.67,2160039.0,0.24028221036162734,-6.038004752298704,-1.1507693563527823,-4.720011428104982,0,-0.07764661866402633,3.853001017293999,-7.978413527552784,-3.437515967412871,-2.7237052352650295,2.112997661372412,4.015339214026504,-1.0269850375641048,0,0.10538324786731648,46.0,48.0,-2.0,-2.8988612709685384,-1.6071402321654205,1.0166181866077153,0.7136295486275228,0.005754867148279663,0.015672829680421163,-0.002938655565078885,-0.011378767703667858
2016-11-07,1478494800,2016-11-14,1479099600,0.25,0,79.36107820996612,85.60202438197247,79.96,80.18,79.46,80.12,2187123.0,82.21,82.59,81.13,81.91,2106852.0,0.4127380729239434,-6.386367666380181,-1.1860578683921261,-4.857160297887916,0,0.7273721938948583,4.092006608209428,-4.969497059585393,-0.3294856093044558,-2.449406726448828,2.083637744437017,2.788437457642601,0.9888609450729651,0,0.07612377739453097,42.0,48.0,-6.0,-2.986814796728126,-1.7149180648086713,0.6923747388243982,0.6945055587153887,0.003662556464412159,0.00830179465266756,-0.009522646807471613,0.002938655565078996
2016-11-07,1478494800,2016-11-15,1479186000,0.25,0,79.36107820996612,85.60202438197247,79.96,80.18,79.46,80.12,2187123.0,81.95,82.33,81.45,82.06,1861201.0,0.6716540241673812,-6.603898723168101,-1.193029490616638,-4.857421398976371,0,1.2430225304582905,4.123842152011166,-2.317978378730642,-1.3698315812308977,-2.308332679862204,2.007868788873009,1.6491715410004062,0.869788603535987,0,0.027807548660323936,38.0,48.0,-10.0,-2.966122349500367,-1.7141405447123788,0.4883820848442326,0.664073812655747,-0.0013404825737265424,0.003290275408237786,-0.0074335851815744425,0.0018312782322060794
2016-11-07,1478494800,2016-11-16,1479272400,0.25,0,79.36107820996612,85.60202438197247,79.96,80.18,79.46,80.12,2187123.0,81.83,82.35,81.75,82.17,1710576.0,0.9441040336553215,-6.701679791231101,-1.133219747677586,-4.759847470690843,0,1.6337463170458761,4.541984732824438,0.015389768746138708,-2.461785140660332,-2.2160174406322,1.9141103518784646,0.5764010418074257,0.7972071093341875,0,0.02150589128619631,34.0,48.0,-14.0,-2.8787878787878896,-1.669932305778886,0.3399826424494279,0.624083601424948,-0.004137763173907794,0.0021905805038333614,-0.005111354508944843,0.0013404825737264314
2016-11-07,1478494800,2016-11-17,1479358800,0.25,0,79.36107820996612,85.60202438197247,79.96,80.18,79.46,80.12,2187123.0,82.52,82.58,81.95,82.39,1207658.0,1.0787208678746651,-6.90588435858956,-1.2685601003357903,-4.760488732451336,0,2.436192797282409,4.701995170923882,2.283407953161018,2.972758898324379,-2.2811327956936793,1.8272604329409727,-0.5995437334942082,0.5622497274341811,0,0.0708297211369828,30.0,48.0,-18.0,-2.9135817453574475,-1.7484486754351565,0.0692265415737694,0.585796212609698,0.001577861390945401,0.002306105109843415,-0.005340453938584733,0.0026773761713521083
2016-11-07,1478494800,2016-11-18,1479445200,0.25,0,79.36107820996612,85.60202438197247,79.96,80.18,79.46,80.12,2187123.0,82.06,82.06,81.12,81.18,1396124.0,2.70351438277072,-5.300213077030392,0.36503243820315845,-3.0742383181407575,0,-2.159089032634256,3.4799235181644406,2.1792311161283764,4.811770810024591,-0.6200288938669871,1.8337766444146049,-1.1684195728745514,-0.6567513361280043,0,0.028528101880608874,26.0,48.0,-21.999999999999996,-1.2983493471298289,-0.25694754807832965,1.4995664834023898,0.4579888007617832,0.010840108401083848,0.010840108401083848,-0.0007390983000739038,-0.014686248331108098
2016-11-07,1478494800,2016-11-21,1479704400,0.25,0,79.36107820996612,85.60202438197247,79.96,80.18,79.46,80.12,2187123.0,81.49,82.15,81.28,82.03,1895125.0,1.8992850715192588,-6.194055277541452,-0.4983948961761939,-3.923970904953478,0,1.0152399574483937,3.5993937863096668,3.418633042676114,12.34698806104133,-1.3550679968759596,1.7696120268860778,-1.7741845442278468,0.8900858389131302,0,0.07106229983679827,22.0,48.0,-26.0,-2.1473851030110893,-1.1675873734388773,0.43025998355641093,0.4111923868346713,-0.006582957454589811,0.0014628794343534146,-0.009142996464708064,0.010470559251047007
2016-11-07,1478494800,2016-11-22,1479790800,0.25,1,79.36107820996612,85.60202438197247,79.96,80.18,79.46,80.12,2187123.0,82.25,82.47,81.89,82.4,1598139.0,1.5709985814044103,-6.145027707618013,-0.7315938511327005,-3.962176375404553,0,2.344155261476182,6.377485153627695,4.988484968298619,11.517968419446454,-1.5040408918160324,1.6861100635844692,-2.620620150941228,0.7507488138542767,0,0.19736356283115117,18.0,48.0,-30.0,-2.2870145631068084,-1.457909531103013,-0.019889326074263636,0.3860555730482138,-0.00182038834951459,0.0008495145631066681,-0.006189320388349628,0.004510544922589288
2016-11-10,1478754000,2016-11-23,1479877200,-0.25,0,79.36107820996612,85.60202438197247,81.79,83.75,81.68,82.61,3212179.0,82.37,83.31,82.17,83.22,1348890.0,0.9410049259838758,-6.88188452223477,-1.4387567091244051,-4.61107105663703,0,5.180701674091509,5.918289423444071,7.508095510887879,17.158017396027788,-2.1543914791779315,1.648093779063827,-4.112810779646075,0.6325880232195713,0,0.2972345229453922,50.0,84.0,-34.0,-2.9704397981254402,-2.1975619195791154,-0.9656203361176949,0.40365034030499186,-0.01021389089161251,0.00108147080028842,-0.012617159336697825,0.009951456310679507
2016-11-10,1478754000,2016-11-25,1480050000,-0.25,0,79.36107820996612,85.60202438197247,81.79,83.75,81.68,82.61,3212179.0,83.26,83.68,83.02,83.68,551234.0,0.8444498122931918,-7.325090347666048,-1.730600701083489,-4.873526131293829,0,6.7024993729539375,5.563264791219895,10.221362466298231,15.902886635502483,-2.440203324818441,1.5782972000631599,-5.418163522444171,0.2602754464159198,0,0.3185635303278115,50.0,88.0,-38.0,-3.2403202676864282,-2.4747000796686507,-1.4508087050139693,0.42321172818782304,-0.00501912045889108,0.0,-0.007887189292543173,0.005527517423696393
2016-11-10,1478754000,2016-11-28,1480309200,-0.25,0,79.36107820996612,85.60202438197247,81.79,83.75,81.68,82.61,3212179.0,83.5,83.53,82.52,83.02,1407676.0,1.8587033376362285,-6.301006397139943,-0.7713000883321115,-3.8308038223721184,0,3.9365905552109197,5.2618232534550415,11.207087219876065,9.404279365477159,-1.3969134687424827,1.5770165761406103,-6.596379207916584,-0.6701448333499385,0,0.25672028583384643,46.0,88.0,-42.0,-2.2211515297518645,-1.5375383732358188,-0.6411825993601639,0.37053994689152875,0.005781739339918213,0.006143098048662976,-0.006022645145748018,-0.007887189292543173
2016-11-10,1478754000,2016-11-29,1480395600,-0.25,1,79.36107820996612,85.60202438197247,81.79,83.75,81.68,82.61,3212179.0,83.02,83.96,82.65,83.57,1549072.0,1.4696514925415016,-6.662902659228081,-1.1204180128435155,-4.251924534322512,0,5.82671543206871,5.66443292451636,12.804090820969128,9.06516478559336,-1.8234708306299865,1.5667027726674936,-7.7711812128967885,0.7364721862550383,0,0.25129778111373546,42.0,88.0,-46.0,-2.5966255833432967,-1.9774026217967702,-1.244305699001913,0.3517297940822481,-0.0065813090822065545,0.004666746440110003,-0.011008735192054364,0.006624909660322809
2016-11-11,1478840400,2016-11-30,1480482000,0.25,0,79.36107820996612,84.93609010932971,82.14,82.95,81.43,81.67,2160039.0,83.97,84.16,81.72,81.81,2971018.0,3.5672898390726147,-4.195574889799886,1.2952776759157558,-2.0099417349142215,0,-0.9524757535806359,3.885714285714289,10.82348203238261,9.866278306787237,0.6716085870889401,1.6991300044123943,-8.396607201441775,-1.3921597598560986,-1,0.04556299436989785,38.0,60.0,-21.999999999999996,-0.3141425253636356,0.11887055083055031,0.8457318042010513,0.20690904652529013,0.026402640264026278,0.028725094731695267,-0.0011001100110011874,-0.02106018906306084
2016-11-11,1478840400,2016-12-01,1480568400,0.25,0,79.36107820996612,84.93609010932971,82.14,82.95,81.43,81.67,2160039.0,82.23,82.55,80.89,81.22,2555443.0,4.085271787452399,-2.924227709639027,2.211483214315038,-1.1522203069851429,0,-2.967808488917079,3.5309114085404665,8.230635451303076,-1.7024294232041015,1.2464864832528804,1.735212767432998,-8.392147611665848,-1.1824701805648872,-1,-0.003107802780225931,34.0,60.0,-26.0,0.580522038906679,0.7655698194823657,1.5164034325030116,0.06489412139951034,0.01243536074858409,0.016375277025363122,-0.004063038660428453,-0.0072118322943406366
2016-11-11,1478840400,2016-12-02,1480654800,0.25,0,79.36107820996612,84.93609010932971,82.14,82.95,81.43,81.67,2160039.0,81.26,81.44,80.29,80.66,2184343.0,4.324953764429267,-1.4263671043747337,3.070914951648902,-0.30374411108357435,0,-4.822469599623986,3.529713772301374,5.229372916315561,-1.686204973983969,1.813426274967611,1.7242939965125257,-8.000224308718852,-1.0020043178136777,0,0.0256159003728033,30.0,60.0,-30.0,1.449293330027274,1.325618430111561,2.1340976290230316,-0.06615088845548583,0.0074386312918424125,0.009670220679395047,-0.004587155963302614,-0.006894853484363472
2016-11-11,1478840400,2016-12-05,1480914000,0.25,0,79.36107820996612,84.93609010932971,82.14,82.95,81.43,81.67,2160039.0,81.32,82.71,81.21,81.86,1826010.0,2.4221754584230695,-2.1253271808760132,1.73894453945762,-1.5495968727095146,1,-0.3444066864120927,3.870067250348937,4.702905227154893,6.443595394393412,0.32906864452321827,1.7565357220193916,-8.763928045129521,0.837026144721413,0,0.009799639865042963,26.0,60.0,-34.0,0.14842413877353522,-0.14451894123348552,0.6119197824820048,-0.0709807124082803,-0.006596628389934134,0.010383581724896063,-0.007940386024920643,0.014877262583684603
2016-11-11,1478840400,2016-12-06,1481000400,0.25,1,79.36107820996612,84.93609010932971,82.14,82.95,81.43,81.67,2160039.0,81.85,82.18,81.46,82.06,1448530.0,2.0378683561491187,-1.9927793968510343,1.6116256397757667,-1.6689008042895352,1,0.366853578588092,2.4213679480778802,4.594692912839269,-0.4240255210850705,0.08494446760607843,1.6897654892401008,-9.473081514653714,0.6613627733951334,0,0.02039718846075668,22.0,60.0,-38.0,0.02254447964904216,-0.3509488353806489,0.35232372207445906,-0.060104000095721144,-0.002559103095296167,0.0014623446258834605,-0.0073117231294176355,0.002443195699975531
2016-11-23,1479877200,2016-12-07,1481086800,-0.25,0,79.96520669014565,85.00352187454382,82.37,83.31,82.17,83.22,1348890.0,82.13,83.75,82.05,83.73,1740258.0,0.22362170663048175,-3.8173157231120456,-0.2438393248138908,-3.4899876587443828,1,5.849338044285076,3.6390642406238363,7.000173312124164,-0.3119276834796878,-1.8159356369994555,1.6827967690463863,-9.845185543931441,0.7923664353618414,0,0.06323905871797728,50.0,92.0,-42.0,-1.796847008240789,-2.1157452623770183,-1.5845346627610013,0.05399604461544988,-0.01910904096500665,0.0002388630120624402,-0.020064493013256968,0.020350962710212084
2016-11-23,1479877200,2016-12-08,1481173200,-0.25,0,79.96520669014565,85.00352187454382,82.37,83.31,82.17,83.22,1348890.0,83.73,85.0,83.47,84.78,1674061.0,-0.48908214717204146,-5.12191101159182,-1.396359204214832,-4.2708579067390104,0,8.857140422215004,4.331774550824509,10.336355057033709,0.7486631738434113,-2.8571808860038033,1.6721493067260653,-9.433297452407325,0.7601838353606071,0,0.09156298905718406,50.0,96.0,-46.0,-2.8054965793819235,-3.011085086081465,-2.6934722114297927,0.18712314194572538,-0.012384996461429543,0.0025949516395376016,-0.015451757489974072,0.01254030813328555
2016-11-23,1479877200,2016-12-09,1481259600,-0.25,0,79.96520669014565,85.00352187454382,82.37,83.31,82.17,83.22,1348890.0,84.84,85.42,84.36,84.68,1443800.0,0.030462105326179767,-5.167448406696025,-1.2131947724767826,-3.971815462131943,0,8.45789280655746,2.5057499092119686,12.747122764174016,6.657781880828651,-2.507307153317356,1.643955932346199,-8.81908268072019,-0.6546736689815035,0,0.11807654535262536,46.0,92.0,-46.0,-2.5684931506849296,-2.6206874498738983,-2.477441285338543,0.2513804799363294,0.0018894662257911143,0.008738781294284292,-0.0037789324515825617,-0.0011795234725170411
2016-11-23,1479877200,2016-12-12,1481518800,-0.25,0,79.96520669014565,85.00352187454382,82.37,83.31,82.17,83.22,1348890.0,84.49,85.15,83.37,84.13,1717090.0,0.9177811528860076,-4.48844560076428,-0.42117358056974297,-3.228733309560596,0,6.248890262816744,3.012121954205943,13.697317692727799,-0.848278110449769,-1.6597718830439163,1.687636861798908,-9.085305089619187,-0.7820601151081139,0,0.05136476470586331,42.0,88.0,-46.0,-1.785332223939136,-1.7951109970686474,-1.7677349652803684,0.23981221548333403,0.004279091881611796,0.012124093664566793,-0.009033638416735879,-0.006495040151157427
2016-11-23,1479877200,2016-12-13,1481605200,-0.25,1,79.96520669014565,85.00352187454382,82.37,83.31,82.17,83.22,1348890.0,83.68,83.91,82.42,82.76,2331696.0,2.611183270095154,-2.827471331960794,1.2987352988561298,-1.5589254067987781,0,1.1781441650350146,1.0377243315834557,12.090413356523936,-8.754372359629222,0.039355073333169344,1.740619656995138,-10.045939294241318,-1.0533451737779929,0,-0.050361133960492695,38.0,16.0,22.0,-0.1081440309328201,-0.15330104000342715,-0.1360554944661203,0.1284472950643995,0.011116481391976851,0.013895601739970953,-0.004108264862252353,-0.016284321882800268
2016-11-30,1480482000,2016-12-14,1481691600,0.25,0,79.84355713931306,85.00352187454382,83.97,84.16,81.72,81.81,2971018.0,82.76,83.47,81.79,82.01,1672662.0,3.5499716564109605,-1.9452893006007201,2.302971182376126,-0.6783725561923291,0,-1.3492033016005252,-0.06093102607847569,9.58671662669567,-14.660860086767642,0.9171541918840944,1.777394635295285,-10.853653242176138,-0.7553703936544158,0,-0.1442547943569713,34.0,16.0,18.0,0.8023411779051202,0.6874558344551502,0.7467435383588423,-0.0003561085820405485,0.009145226191927813,0.017802706986952632,-0.0026825996829654697,-0.009062348960850675
2016-11-30,1480482000,2016-12-15,1481778000,0.25,0,79.84355713931306,85.00352187454382,83.97,84.16,81.72,81.81,2971018.0,82.04,82.82,81.55,81.95,1803444.0,3.626682127458764,-1.9012397845667266,2.4197681513117715,-0.6455155582672347,0,-1.5506844642741129,-0.2677376171352061,7.518301546423222,-18.43074330464283,0.9184139061187295,1.762340924367961,-11.439276651977924,-0.8084664029213606,0,-0.1836853328594343,30.0,16.0,14.0,0.8627211714460117,0.6886817203809841,0.7883289527233615,-0.08930252874155353,0.001098230628431951,0.010616229408175526,-0.004881025015253226,-0.0007316180953542695
2016-11-30,1480482000,2016-12-16,1481864400,0.25,0,79.84355713931306,85.00352187454382,83.97,84.16,81.72,81.81,2971018.0,81.93,82.46,81.68,81.8,2414380.0,3.8152788921437235,-1.7920515082806503,2.596780766096174,-0.49246128769355835,0,-2.0730097516174624,-0.7161063235829632,5.61324574131381,-19.563953081428167,1.0052425299441552,1.7075706459792228,-11.983069818222438,-1.0699499393645697,-1,-0.23756540382160482,26.0,16.0,10.0,1.0116136919315437,0.7901454608913951,0.9349859355933319,-0.15414469670432557,0.0015892420537897411,0.008068459657701643,-0.0014669926650365817,-0.0018303843807200293
2016-11-30,1480482000,2016-12-19,1482123600,0.25,0,79.84355713931306,85.00352187454382,83.97,84.16,81.72,81.81,2971018.0,81.92,82.61,81.84,82.06,1561189.0,3.441972187171501,-1.9515992892918774,2.3050207165488814,-0.7537167925907937,0,-1.0684754240333731,1.0840108401083954,4.442316623697223,-19.59166928349444,0.6005171832036353,1.6510833753475729,-12.61681861099682,0.7289762256167245,0,-0.2848492613345728,22.0,15.999999999999993,6.000000000000007,0.745186448939819,0.42596246377064517,0.5910573867627278,-0.17396308366664126,-0.0017060687301974076,0.006702412868632601,-0.002680965147453085,0.0031784841075794823
2016-11-30,1480482000,2016-12-20,1482210000,0.25,0,79.84355713931306,85.00352187454382,83.97,84.16,81.72,81.81,2971018.0,82.09,82.21,81.49,81.56,1507443.0,4.091974185813058,-1.423999688510463,2.9189145005721855,-0.1401830962890358,0,-2.907456666304334,-0.5729611117883687,2.6669125406082,-17.85342529548295,1.1586661044483435,1.6056038702036042,-12.924491665302044,-0.7161420531806532,0,-0.24154933520171623,18.0,16.0,2.0,1.3339872486512974,0.942417569165201,1.1603646272033075,-0.21262745180520642,0.006498283472290423,0.007969592937714376,-0.0008582638548308985,-0.0060931026078479
2016-11-30,1480482000,2016-12-21,1482296400,0.25,0,79.84355713931306,85.00352187454382,83.97,84.16,81.72,81.81,2971018.0,81.32,82.04,81.06,81.76,1290309.0,3.8363609230406013,-1.7424274592441407,2.6528864970645714,-0.44765166340509666,0,-2.0832744892566666,-0.7766990291262142,1.5202354415507637,-16.222661756253927,0.9753123327072899,1.5728872584388784,-12.872233554322117,0.6309061471187769,0,-0.16895924046708194,14.0,16.0,-2.0,1.0469667318982374,0.629256337876896,0.8771074619978947,-0.21592028012489833,-0.00538160469667337,0.0034246575342467,-0.008561643835616528,0.0024521824423737737
2016-11-30,1480482000,2016-12-22,1482382800,0.25,0,79.84355713931306,85.00352187454382,83.97,84.16,81.72,81.81,2971018.0,81.76,81.86,80.95,81.01,1250453.0,4.765981393551016,-1.0738446203131389,3.4886639509525565,0.38781220425461527,0,-4.859052113221374,-2.6556116318192666,-0.6595367324155741,-14.930815485429662,2.0269365994045216,1.5542970085258565,-12.736631208828218,-0.6173579031101196,0,-0.18857730148197355,10.0,16.0,-6.0,1.8460683866189385,1.4122371520926151,1.740018298044646,-0.2570049516772601,0.00925811628194051,0.010492531786199244,-0.0007406493025552408,-0.009173189823874717
2016-11-30,1480482000,2016-12-23,1482469200,0.25,0,79.84355713931306,85.00352187454382,83.97,84.16,81.72,81.81,2971018.0,81.05,81.05,79.99,80.75,1902683.0,4.987793710741457,-1.0026543918559696,3.669349845201239,0.5089783281733844,0,-5.793535954418132,-3.5014340344168335,-2.875213283475481,-22.626364175264484,2.2206390833925127,1.5416866949038792,-11.897478661674507,-0.9469939454956241,0,-0.1429665808279001,6.000000000000007,16.000000000000007,-10.0,1.9925696594427507,1.5731689825324793,1.9865198164038702,-0.2877666705039362,0.0037151702786377694,0.0037151702786377694,-0.009411764705882453,-0.003209480311072821
2016-11-30,1480482000,2016-12-27,1482814800,0.25,0,79.84355713931306,85.00352187454382,83.97,84.16,81.72,81.81,2971018.0,81.06,81.81,80.91,81.74,1275272.0,3.6310584101783405,-2.273094133202548,2.3130250387407187,-0.7956121034173407,0,-1.51883810213711,-1.5417971573114926,-2.9749125333236104,-17.080260394018268,0.961024169997259,1.5068558914811319,-11.916353365537304,0.643101306418414,0,-0.13930151667931087,2.0,16.0,-14.0,0.6789821384878962,0.310295426526892,0.721839760588594,-0.23001762419537058,-0.008319060435527215,0.000856373868363125,-0.010154147296305371,0.012260061919504572
2016-11-30,1480482000,2016-12-28,1482901200,0.25,0,79.84355713931306,85.00352187454382,83.97,84.16,81.72,81.81,2971018.0,82.17,82.27,80.67,80.73,1240007.0,4.773174171721422,-1.24784282030312,3.4766092737107215,0.29315826417276014,0,-5.204523574506894,-3.398348689721179,-4.700889568574249,-23.92739410441024,2.076682370925127,1.5582941439769953,-12.380964389784305,-0.6301305870174989,0,-0.26562023012198327,-2.0,16.0,-18.0,1.762665675709158,1.416188833514326,1.9042307375334957,-0.24693011641380838,0.01783723522853964,0.019075932119410277,-0.0007432181345224942,-0.012356251529238915
2016-11-30,1480482000,2016-12-29,1482987600,0.25,0,79.84355713931306,85.00352187454382,83.97,84.16,81.72,81.81,2971018.0,80.76,81.29,80.73,81.28,1350628.0,4.063344330016136,-1.9804211016697195,2.570743110236222,-0.35986712598426607,0,-2.8993008413882464,-0.6478425620339826,-5.103786680349649,-31.039395104362853,1.1086765941400643,1.486408641347737,-12.812388912299378,0.6867156148927825,0,-0.26457242087206284,-6.0,15.999999999999996,-21.999999999999996,1.0414616141732154,0.6604152407097388,1.1670378899888192,-0.20963407451822685,-0.006397637795275579,0.00012303149606296415,-0.006766732283464583,0.0068128328997894005
2016-11-30,1480482000,2016-12-30,1483074000,0.25,0,79.84355713931306,85.00352187454382,83.97,84.16,81.72,81.81,2971018.0,81.38,81.44,80.55,80.81,1454694.0,4.688380751069303,-1.4808569297600656,3.0813018190818013,0.22893206286352097,0,-4.604452640948232,-0.5048017729623204,-6.181953633973427,-37.554902454187825,1.3910540342424866,1.4669319804777285,-13.049140813312542,-0.7459067792863556,0,-0.2658813327966062,-10.0,16.0,-26.0,1.6037619106546117,1.1272134309950275,1.6865960447567119,-0.2049325124123636,0.007053582477416054,0.007796064843459849,-0.003217423586189927,-0.005782480314960647
2016-11-30,1480482000,2017-01-03,1483419600,0.25,1,79.84355713931306,85.00352187454382,83.97,84.16,81.72,81.81,2971018.0,81.38,81.84,80.65,81.23,1460275.0,4.115276860680893,-1.8882671352100147,2.578070499404973,-0.2644753580368615,0,-2.8062090875248984,0.7066699727250279,-6.284688927204934,-30.931154960026205,0.5970898382751386,1.4597492599947839,-13.700613098239488,0.7570020021938971,0,-0.25940946714125585,-14.0,16.0,-30.0,1.1135048627354536,0.5467791220786751,1.1153025885014785,-0.16364219898611698,0.0018466083959127744,0.007509540810045623,-0.007140219130862935,0.005197376562306566
2016-12-07,1481086800,2017-01-04,1483506000,-0.25,1,79.84355713931306,85.00352187454382,82.13,83.75,82.05,83.73,1740258.0,81.62,83.16,81.55,82.95,1429839.0,2.0482110390518784,-3.883051304271916,0.49547920433997206,-2.30138637733576,0,3.7583998443560986,1.3315416564866889,-3.274705895724719,-23.423940760599734,-1.5929938570070306,1.4935680884025586,-13.499757612579609,0.7504362519955192,0,-0.1626886661683211,-18.0,16.0,-34.0,-0.9174201326100189,-1.3916114161471,-0.942877132708162,-0.018247334897119494,-0.01603375527426154,0.0025316455696202667,-0.016877637130801704,0.021174442939800642
2016-12-14,1481691600,2017-01-05,1483592400,0.25,0,79.84355713931306,84.69735806483712,82.76,83.47,81.79,82.01,1672662.0,82.26,82.4,81.36,81.54,1743799.0,3.8003875648974486,-2.27230318913098,2.244706074728157,-0.6397678031232061,0,-1.4497383950769773,-0.6336826712161784,-3.22753339349081,-23.49482487930149,0.047107506495521534,1.5501499247774089,-13.516226025974039,-0.9186267059149511,0,-0.1578012494887693,-21.999999999999996,16.000000000000004,-38.0,0.7640421878832342,0.28367662238886737,0.7398338720442865,-0.01493129270417698,0.008830022075055233,0.010546970811871503,-0.002207505518763919,-0.016998191681735997
2016-12-14,1481691600,2017-01-06,1483678800,0.25,0,79.84355713931306,84.69735806483712,82.76,83.47,81.79,82.01,1672662.0,81.67,81.99,81.26,81.52,1473435.0,3.574833441817745,-2.2684055713565243,2.1129784102060825,-0.6532139352306103,0,-1.519865718255467,-2.6394362832915417,-3.223062424991997,-23.07075353935886,0.017907647352231493,1.503741345912088,-13.64213945676372,-0.8016544614672668,0,-0.14883468830658106,-26.0,16.0,-42.0,0.6532139352306103,0.2789200686960953,0.734566915468406,-0.012100751819833139,0.0018400392541708666,0.00576545632973513,-0.003189401373895895,-0.0002452783909738798
2016-12-14,1481691600,2017-01-09,1483938000,0.25,0,79.84355713931306,84.69735806483712,82.76,83.47,81.79,82.01,1672662.0,81.06,82.26,80.82,82.17,1580256.0,2.168196249825698,-2.771822877548729,1.1374792097683724,-1.5958784633483418,0,0.9060910430684004,-3.0785562632696384,-2.1215101186444816,-14.239112243924382,-0.8168661182390764,1.5104616985203112,-14.243958279703877,0.8696788650957616,0,-0.006045653506530593,-30.0,16.0,-46.0,-0.30181331386151555,-0.4653455287226933,-0.05984416513345536,0.03306251943856478,-0.013508579773640061,0.0010952902519167917,-0.016429353778751432,0.007973503434739904
2016-12-14,1481691600,2017-01-10,1484024400,0.25,0,79.84355713931306,84.69735806483712,82.76,83.47,81.79,82.01,1672662.0,81.93,82.42,81.58,82.2,1618827.0,1.454355859260275,-2.4324580490413155,0.9197080291970678,-1.7858880778588855,1,1.0181451692496282,-2.928672649976386,-1.1975512905267223,-14.064093008815888,-0.860666511584256,1.4750523904904258,-14.63877229345927,0.8990866491691669,0,0.06394681703358315,-34.0,-52.0,18.0,-0.4890510948905131,-0.4538937549575621,-0.09254147163822779,0.06274928492941181,-0.003284671532846617,0.002676399026763976,-0.0075425790754258815,0.0003650967506390046
2016-12-14,1481691600,2017-01-11,1484110800,0.25,1,79.84355713931306,84.69735806483712,82.76,83.47,81.79,82.01,1672662.0,82.08,82.44,81.51,82.4,1246447.0,0.654173051087966,-2.325289555942348,0.49575242718447043,-2.1001213592233086,1,1.7903269705493798,-2.05634137644121,-0.11374097600731709,-7.430340665233018,-1.078310218400361,1.4469842098457597,-15.088236644517423,0.699121657209436,0,0.18061037788954698,-38.0,-52.0,14.0,-0.835558252427191,-0.6292714207655479,-0.3218966636837166,0.09188543166856251,-0.003883495145631133,0.00048543689320368344,-0.010800970873786397,0.0024330900243310083
2017-01-04,1483506000,2017-01-12,1484197200,-0.25,1,80.19212550444895,84.69735806483712,81.62,83.16,81.55,82.95,1429839.0,82.25,82.7,81.7,82.61,1086810.0,0.36002719308541486,-2.5534662440477263,0.16866400355081623,-2.3612960497114983,1,2.615950763169778,-0.1812469792170199,1.12860914811002,-1.5638894684529419,-1.2842286002158687,1.4266774046611255,-15.216230571520965,0.619193737636536,0,0.19925208907804745,-42.0,-52.0,10.0,-1.096719525481177,-0.7978898763268205,-0.5527247020109485,0.11957784743705477,-0.004357825929064307,0.0010894564822661046,-0.011015615542912416,0.0025485436893202262
2017-01-05,1483592400,2017-01-13,1484283600,0.25,0,80.19212550444895,84.58875231922626,82.26,82.4,81.36,81.54,1743799.0,82.58,82.81,82.01,82.14,1309082.0,0.9518355129324334,-1.9976110181674045,0.6819657495333189,-1.755336417498583,1,0.5754230566716529,0.15851725399340988,1.3248408683408124,-1.7443854801286207,-0.6376655122711838,1.4019197756336934,-15.211192137767885,-0.7554080975391084,0,0.20868324557656376,-46.0,-52.00000000000001,6.000000000000007,-0.5228877526174784,-0.20833186718598995,0.01566698796816013,0.10124512491029056,0.005356708059410797,0.0081568054541028,-0.0015826637448258518,-0.005689383851833929
2017-01-05,1483592400,2017-01-17,1484629200,0.25,0,80.19212550444895,84.58875231922626,82.26,82.4,81.36,81.54,1743799.0,81.69,81.94,80.69,81.84,2377718.0,1.3110118735294378,-1.6409238969898183,1.0121375040729816,-1.4316552623004242,1,-0.7089550389743309,-0.1342281879194624,0.9493178557174656,-2.900451298084157,-0.1763923315277367,1.4331081333064262,-15.0754336001334,-1.3708127944541475,0,0.2606256114856775,-46.0,-48.0,2.0,-0.16495601173019736,0.1424759042949688,0.3673014378110935,0.06564401369293903,-0.001832844574780168,0.0012218963831867047,-0.014051808406647215,-0.0036523009495982306
2017-01-05,1483592400,2017-01-18,1484715600,0.25,1,80.19212550444895,84.58875231922626,82.26,82.4,81.36,81.54,1743799.0,81.84,82.59,81.58,82.46,2226247.0,0.6424646347903149,-2.3936167085229982,0.28054005982700403,-2.1727706362680976,1,1.9458410901344436,0.8068459657701669,1.7433586003478587,-0.5307893639327474,-0.8476864522615131,1.4082259841891944,-15.700897168262872,1.2762300526765418,0,0.27583109084869445,-46.0,-44.0,-2.0,-0.8755760368663346,-0.5523345621296585,-0.3721501253483268,0.07964831479329745,-0.007518796992481036,0.0015765219500365468,-0.010671840892553908,0.007575757575757347
