start,start_unix,bottom,top,end,end_unix,direction,finished
2016-03-15,1458014400,87.9,91.20559910275475,2016-03-15,1458014400,,0
2016-03-15,1458014400,87.9,91.20559910275475,2016-03-16,1458100800,,1
2016-03-17,1458187200,91.20559910275475,94.64689628829328,2016-03-17,1458187200,1.0,0
2016-03-17,1458187200,91.20559910275475,94.64689628829328,2016-03-18,1458273600,1.0,0
2016-03-17,1458187200,91.20559910275475,94.64689628829328,2016-03-21,1458532800,1.0,0
2016-03-17,1458187200,91.20559910275475,94.64689628829328,2016-03-22,1458619200,1.0,0
2016-03-17,1458187200,91.20559910275475,94.64689628829328,2016-03-23,1458705600,1.0,0
2016-03-17,1458187200,91.20559910275475,94.64689628829328,2016-03-24,1458792000,1.0,0
2016-03-17,1458187200,91.20559910275475,94.64689628829328,2016-03-28,1459137600,1.0,0
2016-03-17,1458187200,91.20559910275475,94.64689628829328,2016-03-29,1459224000,1.0,0
2016-03-17,1458187200,91.20559910275475,94.64689628829328,2016-03-30,1459310400,1.0,0
2016-03-17,1458187200,91.20559910275475,94.64689628829328,2016-03-31,1459396800,1.0,1
2016-04-01,1459483200,94.64689628829328,97.73148188250381,2016-04-01,1459483200,1.0,1
2016-04-04,1459742400,91.60906680795492,94.64689628829328,2016-04-04,1459742400,-1.0,0
2016-04-04,1459742400,91.60906680795492,94.64689628829328,2016-04-05,1459828800,-1.0,0
2016-04-04,1459742400,91.60906680795492,94.64689628829328,2016-04-06,1459915200,-1.0,0
2016-04-04,1459742400,91.60906680795492,94.64689628829328,2016-04-07,1460001600,-1.0,0
2016-04-04,1459742400,91.60906680795492,94.64689628829328,2016-04-08,1460088000,-1.0,0
2016-04-04,1459742400,91.60906680795492,94.64689628829328,2016-04-11,1460347200,-1.0,1
2016-04-12,1460433600,94.64689628829328,97.45658121816977,2016-04-12,1460433600,1.0,0
2016-04-12,1460433600,94.64689628829328,97.45658121816977,2016-04-13,1460520000,1.0,0
2016-04-12,1460433600,94.64689628829328,97.45658121816977,2016-04-14,1460606400,1.0,0
2016-04-12,1460433600,94.64689628829328,97.45658121816977,2016-04-15,1460692800,1.0,1
2016-04-18,1460952000,97.45658121816977,100.00067360889766,2016-04-18,1460952000,1.0,0
2016-04-18,1460952000,97.45658121816977,100.00067360889766,2016-04-19,1461038400,1.0,0
2016-04-18,1460952000,97.45658121816977,100.00067360889766,2016-04-20,1461124800,1.0,1
2016-04-21,1461211200,94.52971424206585,97.45658121816977,2016-04-21,1461211200,-1.0,0
2016-04-21,1461211200,94.52971424206585,97.45658121816977,2016-04-22,1461297600,-1.0,0
2016-04-21,1461211200,94.52971424206585,97.45658121816977,2016-04-25,1461556800,-1.0,0
2016-04-21,1461211200,94.52971424206585,97.45658121816977,2016-04-26,1461643200,-1.0,0
2016-04-21,1461211200,94.52971424206585,97.45658121816977,2016-04-27,1461729600,-1.0,0
2016-04-21,1461211200,94.52971424206585,97.45658121816977,2016-04-28,1461816000,-1.0,1
2016-04-29,1461902400,91.48951587472142,94.52971424206585,2016-04-29,1461902400,-1.0,0
2016-04-29,1461902400,91.48951587472142,94.52971424206585,2016-05-02,1462161600,-1.0,0
2016-04-29,1461902400,91.48951587472142,94.52971424206585,2016-05-03,1462248000,-1.0,0
2016-04-29,1461902400,91.48951587472142,94.52971424206585,2016-05-04,1462334400,-1.0,0
2016-04-29,1461902400,91.48951587472142,94.52971424206585,2016-05-05,1462420800,-1.0,0
2016-04-29,1461902400,91.48951587472142,94.52971424206585,2016-05-06,1462507200,-1.0,1
2016-05-09,1462766400,88.71774184411935,91.48951587472142,2016-05-09,1462766400,-1.0,1
2016-05-10,1462852800,91.48951587472142,94.23302033170906,2016-05-10,1462852800,1.0,1
2016-05-11,1462939200,88.74397602180433,91.48951587472142,2016-05-11,1462939200,-1.0,0
2016-05-11,1462939200,88.74397602180433,91.48951587472142,2016-05-12,1463025600,-1.0,0
2016-05-11,1462939200,88.74397602180433,91.48951587472142,2016-05-13,1463112000,-1.0,1
2016-05-16,1463371200,91.48951587472142,94.26615620156502,2016-05-16,1463371200,1.0,1
2016-05-17,1463457600,88.74020699979522,91.48951587472142,2016-05-17,1463457600,-1.0,0
2016-05-17,1463457600,88.74020699979522,91.48951587472142,2016-05-18,1463544000,-1.0,0
2016-05-17,1463457600,88.74020699979522,91.48951587472142,2016-05-19,1463630400,-1.0,0
2016-05-17,1463457600,88.74020699979522,91.48951587472142,2016-05-20,1463716800,-1.0,0
2016-05-17,1463457600,88.74020699979522,91.48951587472142,2016-05-23,1463976000,-1.0,0
2016-05-17,1463457600,88.74020699979522,91.48951587472142,2016-05-24,1464062400,-1.0,1
2016-05-25,1464148800,91.48951587472142,94.02010178775427,2016-05-25,1464148800,1.0,1
2016-05-26,1464235200,88.98668609833378,91.48951587472142,2016-05-26,1464235200,-1.0,1
2016-05-27,1464321600,91.48951587472142,93.9665720956528,2016-05-27,1464321600,1.0,1
2016-05-31,1464667200,89.0081065267137,91.48951587472142,2016-05-31,1464667200,-1.0,0
2016-05-31,1464667200,89.0081065267137,91.48951587472142,2016-06-01,1464753600,-1.0,1
2016-06-02,1464840000,91.48951587472142,93.94492495540153,2016-06-02,1464840000,1.0,1
2016-06-03,1464926400,89.06420744266131,91.48951587472142,2016-06-03,1464926400,-1.0,0
2016-06-03,1464926400,89.06420744266131,91.48951587472142,2016-06-06,1465185600,-1.0,0
2016-06-03,1464926400,89.06420744266131,91.48951587472142,2016-06-07,1465272000,-1.0,1
2016-06-08,1465358400,91.48951587472142,94.05228796846635,2016-06-08,1465358400,1.0,0
2016-06-08,1465358400,91.48951587472142,94.05228796846635,2016-06-09,1465444800,1.0,0
2016-06-08,1465358400,91.48951587472142,94.05228796846635,2016-06-10,1465531200,1.0,1
2016-06-13,1465790400,88.95761926759401,91.48951587472142,2016-06-13,1465790400,-1.0,0
2016-06-13,1465790400,88.95761926759401,91.48951587472142,2016-06-14,1465876800,-1.0,0
2016-06-13,1465790400,88.95761926759401,91.48951587472142,2016-06-15,1465963200,-1.0,0
2016-06-13,1465790400,88.95761926759401,91.48951587472142,2016-06-16,1466049600,-1.0,1
2016-06-17,1466136000,91.48951587472142,93.97737798936546,2016-06-17,1466136000,1.0,0
2016-06-17,1466136000,91.48951587472142,93.97737798936546,2016-06-20,1466395200,1.0,1
2016-06-21,1466481600,89.09925721464569,91.48951587472142,2016-06-21,1466481600,-1.0,0
2016-06-21,1466481600,89.09925721464569,91.48951587472142,2016-06-22,1466568000,-1.0,1
2016-06-23,1466654400,91.48951587472142,93.99995318876631,2016-06-23,1466654400,1.0,1
2016-06-24,1466740800,88.17868122596545,91.48951587472142,2016-06-24,1466740800,-1.0,1
2016-06-27,1467000000,84.5977633378349,88.17868122596545,2016-06-27,1467000000,-1.0,0
2016-06-27,1467000000,84.5977633378349,88.17868122596545,2016-06-28,1467086400,-1.0,0
2016-06-27,1467000000,84.5977633378349,88.17868122596545,2016-06-29,1467172800,-1.0,0
2016-06-27,1467000000,84.5977633378349,88.17868122596545,2016-06-30,1467259200,-1.0,1
2016-07-01,1467345600,88.17868122596545,91.60293616669058,2016-07-01,1467345600,1.0,1
2016-07-05,1467691200,84.70330163814926,88.17868122596545,2016-07-05,1467691200,-1.0,0
2016-07-05,1467691200,84.70330163814926,88.17868122596545,2016-07-06,1467777600,-1.0,0
2016-07-05,1467691200,84.70330163814926,88.17868122596545,2016-07-07,1467864000,-1.0,1
2016-07-08,1467950400,88.17868122596545,91.59933317728913,2016-07-08,1467950400,1.0,0
2016-07-08,1467950400,88.17868122596545,91.59933317728913,2016-07-11,1468209600,1.0,1
2016-07-12,1468296000,91.59933317728913,94.93531368633862,2016-07-12,1468296000,1.0,0
2016-07-12,1468296000,91.59933317728913,94.93531368633862,2016-07-13,1468382400,1.0,0
2016-07-12,1468296000,91.59933317728913,94.93531368633862,2016-07-14,1468468800,1.0,0
2016-07-12,1468296000,91.59933317728913,94.93531368633862,2016-07-15,1468555200,1.0,0
2016-07-12,1468296000,91.59933317728913,94.93531368633862,2016-07-18,1468814400,1.0,0
2016-07-12,1468296000,91.59933317728913,94.93531368633862,2016-07-19,1468900800,1.0,0
2016-07-12,1468296000,91.59933317728913,94.93531368633862,2016-07-20,1468987200,1.0,0
2016-07-12,1468296000,91.59933317728913,94.93531368633862,2016-07-21,1469073600,1.0,1
2016-07-22,1469160000,88.66864279599191,91.59933317728913,2016-07-22,1469160000,-1.0,0
2016-07-22,1469160000,88.66864279599191,91.59933317728913,2016-07-25,1469419200,-1.0,0
2016-07-22,1469160000,88.66864279599191,91.59933317728913,2016-07-26,1469505600,-1.0,0
2016-07-22,1469160000,88.66864279599191,91.59933317728913,2016-07-27,1469592000,-1.0,0
2016-07-22,1469160000,88.66864279599191,91.59933317728913,2016-07-28,1469678400,-1.0,1
2016-07-29,1469764800,86.02101663623894,88.66864279599191,2016-07-29,1469764800,-1.0,0
2016-07-29,1469764800,86.02101663623894,88.66864279599191,2016-08-01,1470024000,-1.0,0
2016-07-29,1469764800,86.02101663623894,88.66864279599191,2016-08-02,1470110400,-1.0,0
2016-07-29,1469764800,86.02101663623894,88.66864279599191,2016-08-03,1470196800,-1.0,0
2016-07-29,1469764800,86.02101663623894,88.66864279599191,2016-08-04,1470283200,-1.0,0
2016-07-29,1469764800,86.02101663623894,88.66864279599191,2016-08-05,1470369600,-1.0,1
2016-08-08,1470628800,88.66864279599191,90.97412165425504,2016-08-08,1470628800,1.0,1
2016-08-09,1470715200,86.41726957046187,88.66864279599191,2016-08-09,1470715200,-1.0,1
2016-08-10,1470801600,88.66864279599191,90.86720364826981,2016-08-10,1470801600,1.0,0
2016-08-10,1470801600,88.66864279599191,90.86720364826981,2016-08-11,1470888000,1.0,1
2016-08-12,1470974400,86.54895512234414,88.66864279599191,2016-08-12,1470974400,-1.0,1
2016-08-15,1471233600,88.66864279599191,90.719209921522,2016-08-15,1471233600,1.0,1
2016-08-16,1471320000,86.57811617942826,88.66864279599191,2016-08-16,1471320000,-1.0,0
2016-08-16,1471320000,86.57811617942826,88.66864279599191,2016-08-17,1471406400,-1.0,0
2016-08-16,1471320000,86.57811617942826,88.66864279599191,2016-08-18,1471492800,-1.0,1
2016-08-19,1471579200,88.66864279599191,90.68974883702337,2016-08-19,1471579200,1.0,0
2016-08-19,1471579200,88.66864279599191,90.68974883702337,2016-08-22,1471838400,1.0,0
2016-08-19,1471579200,88.66864279599191,90.68974883702337,2016-08-23,1471924800,1.0,0
2016-08-19,1471579200,88.66864279599191,90.68974883702337,2016-08-24,1472011200,1.0,0
2016-08-19,1471579200,88.66864279599191,90.68974883702337,2016-08-25,1472097600,1.0,0
2016-08-19,1471579200,88.66864279599191,90.68974883702337,2016-08-26,1472184000,1.0,1
2016-08-29,1472443200,90.68974883702337,92.87662009639514,2016-08-29,1472443200,1.0,0
2016-08-29,1472443200,90.68974883702337,92.87662009639514,2016-08-30,1472529600,1.0,1
2016-08-31,1472616000,88.49721188378956,90.68974883702337,2016-08-31,1472616000,-1.0,0
2016-08-31,1472616000,88.49721188378956,90.68974883702337,2016-09-01,1472702400,-1.0,1
2016-09-02,1472788800,90.68974883702337,92.82150774057702,2016-09-02,1472788800,1.0,0
2016-09-02,1472788800,90.68974883702337,92.82150774057702,2016-09-06,1473134400,1.0,1
2016-09-07,1473220800,88.60332406814294,90.68974883702337,2016-09-07,1473220800,-1.0,0
2016-09-07,1473220800,88.60332406814294,90.68974883702337,2016-09-08,1473307200,-1.0,1
2016-09-09,1473393600,86.14694760926133,88.60332406814294,2016-09-09,1473393600,-1.0,0
2016-09-09,1473393600,86.14694760926133,88.60332406814294,2016-09-12,1473652800,-1.0,1
2016-09-13,1473739200,83.53202096869505,86.14694760926133,2016-09-13,1473739200,-1.0,0
2016-09-13,1473739200,83.53202096869505,86.14694760926133,2016-09-14,1473825600,-1.0,0
2016-09-13,1473739200,83.53202096869505,86.14694760926133,2016-09-15,1473912000,-1.0,0
2016-09-13,1473739200,83.53202096869505,86.14694760926133,2016-09-16,1473998400,-1.0,0
2016-09-13,1473739200,83.53202096869505,86.14694760926133,2016-09-19,1474257600,-1.0,0
2016-09-13,1473739200,83.53202096869505,86.14694760926133,2016-09-20,1474344000,-1.0,1
2016-09-21,1474430400,86.14694760926133,88.57974001758836,2016-09-21,1474430400,1.0,0
2016-09-21,1474430400,86.14694760926133,88.57974001758836,2016-09-22,1474516800,1.0,0
2016-09-21,1474430400,86.14694760926133,88.57974001758836,2016-09-23,1474603200,1.0,0
2016-09-21,1474430400,86.14694760926133,88.57974001758836,2016-09-26,1474862400,1.0,0
2016-09-21,1474430400,86.14694760926133,88.57974001758836,2016-09-27,1474948800,1.0,0
2016-09-21,1474430400,86.14694760926133,88.57974001758836,2016-09-28,1475035200,1.0,0
2016-09-21,1474430400,86.14694760926133,88.57974001758836,2016-09-29,1475121600,1.0,0
2016-09-21,1474430400,86.14694760926133,88.57974001758836,2016-09-30,1475208000,1.0,0
2016-09-21,1474430400,86.14694760926133,88.57974001758836,2016-10-03,1475467200,1.0,0
2016-09-21,1474430400,86.14694760926133,88.57974001758836,2016-10-04,1475553600,1.0,0
2016-09-21,1474430400,86.14694760926133,88.57974001758836,2016-10-05,1475640000,1.0,0
2016-09-21,1474430400,86.14694760926133,88.57974001758836,2016-10-06,1475726400,1.0,1
2016-10-07,1475812800,82.95583393704038,86.14694760926133,2016-10-07,1475812800,-1.0,1
2016-10-10,1476072000,79.7985140985495,82.95583393704038,2016-10-10,1476072000,-1.0,1
2016-10-11,1476158400,76.61085996280798,79.7985140985495,2016-10-11,1476158400,-1.0,0
2016-10-11,1476158400,76.61085996280798,79.7985140985495,2016-10-12,1476244800,-1.0,0
2016-10-11,1476158400,76.61085996280798,79.7985140985495,2016-10-13,1476331200,-1.0,0
2016-10-11,1476158400,76.61085996280798,79.7985140985495,2016-10-14,1476417600,-1.0,0
2016-10-11,1476158400,76.61085996280798,79.7985140985495,2016-10-17,1476676800,-1.0,0
2016-10-11,1476158400,76.61085996280798,79.7985140985495,2016-10-18,1476763200,-1.0,0
2016-10-11,1476158400,76.61085996280798,79.7985140985495,2016-10-19,1476849600,-1.0,0
2016-10-11,1476158400,76.61085996280798,79.7985140985495,2016-10-20,1476936000,-1.0,0
2016-10-11,1476158400,76.61085996280798,79.7985140985495,2016-10-21,1477022400,-1.0,0
2016-10-11,1476158400,76.61085996280798,79.7985140985495,2016-10-24,1477281600,-1.0,0
2016-10-11,1476158400,76.61085996280798,79.7985140985495,2016-10-25,1477368000,-1.0,0
2016-10-11,1476158400,76.61085996280798,79.7985140985495,2016-10-26,1477454400,-1.0,0
2016-10-11,1476158400,76.61085996280798,79.7985140985495,2016-10-27,1477540800,-1.0,0
2016-10-11,1476158400,76.61085996280798,79.7985140985495,2016-10-28,1477627200,-1.0,0
2016-10-11,1476158400,76.61085996280798,79.7985140985495,2016-10-31,1477886400,-1.0,0
2016-10-11,1476158400,76.61085996280798,79.7985140985495,2016-11-01,1477972800,-1.0,0
2016-10-11,1476158400,76.61085996280798,79.7985140985495,2016-11-02,1478059200,-1.0,0
2016-10-11,1476158400,76.61085996280798,79.7985140985495,2016-11-03,1478145600,-1.0,0
2016-10-11,1476158400,76.61085996280798,79.7985140985495,2016-11-04,1478232000,-1.0,1
2016-11-07,1478494800,79.7985140985495,82.46731155204326,2016-11-07,1478494800,1.0,0
2016-11-07,1478494800,79.7985140985495,82.46731155204326,2016-11-08,1478581200,1.0,0
2016-11-07,1478494800,79.7985140985495,82.46731155204326,2016-11-09,1478667600,1.0,1
2016-11-10,1478754000,82.46731155204326,85.60202438197247,2016-11-10,1478754000,1.0,1
2016-11-11,1478840400,79.36107820996612,82.46731155204326,2016-11-11,1478840400,-1.0,0
2016-11-11,1478840400,79.36107820996612,82.46731155204326,2016-11-14,1479099600,-1.0,0
2016-11-11,1478840400,79.36107820996612,82.46731155204326,2016-11-15,1479186000,-1.0,0
2016-11-11,1478840400,79.36107820996612,82.46731155204326,2016-11-16,1479272400,-1.0,0
2016-11-11,1478840400,79.36107820996612,82.46731155204326,2016-11-17,1479358800,-1.0,0
2016-11-11,1478840400,79.36107820996612,82.46731155204326,2016-11-18,1479445200,-1.0,0
2016-11-11,1478840400,79.36107820996612,82.46731155204326,2016-11-21,1479704400,-1.0,0
2016-11-11,1478840400,79.36107820996612,82.46731155204326,2016-11-22,1479790800,-1.0,1
2016-11-23,1479877200,82.46731155204326,84.93609010932971,2016-11-23,1479877200,1.0,0
2016-11-23,1479877200,82.46731155204326,84.93609010932971,2016-11-25,1480050000,1.0,0
2016-11-23,1479877200,82.46731155204326,84.93609010932971,2016-11-28,1480309200,1.0,0
2016-11-23,1479877200,82.46731155204326,84.93609010932971,2016-11-29,1480395600,1.0,1
2016-11-30,1480482000,79.96520669014565,82.46731155204326,2016-11-30,1480482000,-1.0,0
2016-11-30,1480482000,79.96520669014565,82.46731155204326,2016-12-01,1480568400,-1.0,0
2016-11-30,1480482000,79.96520669014565,82.46731155204326,2016-12-02,1480654800,-1.0,0
2016-11-30,1480482000,79.96520669014565,82.46731155204326,2016-12-05,1480914000,-1.0,0
2016-11-30,1480482000,79.96520669014565,82.46731155204326,2016-12-06,1481000400,-1.0,1
2016-12-07,1481086800,82.46731155204326,85.00352187454382,2016-12-07,1481086800,1.0,0
2016-12-07,1481086800,82.46731155204326,85.00352187454382,2016-12-08,1481173200,1.0,0
2016-12-07,1481086800,82.46731155204326,85.00352187454382,2016-12-09,1481259600,1.0,0
2016-12-07,1481086800,82.46731155204326,85.00352187454382,2016-12-12,1481518800,1.0,0
2016-12-07,1481086800,82.46731155204326,85.00352187454382,2016-12-13,1481605200,1.0,1
2016-12-14,1481691600,79.84355713931306,82.46731155204326,2016-12-14,1481691600,-1.0,0
2016-12-14,1481691600,79.84355713931306,82.46731155204326,2016-12-15,1481778000,-1.0,0
2016-12-14,1481691600,79.84355713931306,82.46731155204326,2016-12-16,1481864400,-1.0,0
2016-12-14,1481691600,79.84355713931306,82.46731155204326,2016-12-19,1482123600,-1.0,0
2016-12-14,1481691600,79.84355713931306,82.46731155204326,2016-12-20,1482210000,-1.0,0
2016-12-14,1481691600,79.84355713931306,82.46731155204326,2016-12-21,1482296400,-1.0,0
2016-12-14,1481691600,79.84355713931306,82.46731155204326,2016-12-22,1482382800,-1.0,0
2016-12-14,1481691600,79.84355713931306,82.46731155204326,2016-12-23,1482469200,-1.0,0
2016-12-14,1481691600,79.84355713931306,82.46731155204326,2016-12-27,1482814800,-1.0,0
2016-12-14,1481691600,79.84355713931306,82.46731155204326,2016-12-28,1482901200,-1.0,0
2016-12-14,1481691600,79.84355713931306,82.46731155204326,2016-12-29,1482987600,-1.0,0
2016-12-14,1481691600,79.84355713931306,82.46731155204326,2016-12-30,1483074000,-1.0,0
2016-12-14,1481691600,79.84355713931306,82.46731155204326,2017-01-03,1483419600,-1.0,1
2017-01-04,1483506000,82.46731155204326,84.69735806483712,2017-01-04,1483506000,1.0,1
2017-01-05,1483592400,80.19212550444895,82.46731155204326,2017-01-05,1483592400,-1.0,0
2017-01-05,1483592400,80.19212550444895,82.46731155204326,2017-01-06,1483678800,-1.0,0
2017-01-05,1483592400,80.19212550444895,82.46731155204326,2017-01-09,1483938000,-1.0,0
2017-01-05,1483592400,80.19212550444895,82.46731155204326,2017-01-10,1484024400,-1.0,0
2017-01-05,1483592400,80.19212550444895,82.46731155204326,2017-01-11,1484110800,-1.0,1
2017-01-12,1484197200,82.46731155204326,84.58875231922626,2017-01-12,1484197200,1.0,1
2017-01-13,1484283600,80.39454512537333,82.46731155204326,2017-01-13,1484283600,-1.0,0
2017-01-13,1484283600,80.39454512537333,82.46731155204326,2017-01-17,1484629200,-1.0,0
2017-01-13,1484283600,80.39454512537333,82.46731155204326,2017-01-18,1484715600,-1.0,1
2017-01-19,1484802000,82.46731155204326,84.73478452558328,2017-01-19,1484802000,1.0,0
2017-01-19,1484802000,82.46731155204326,84.73478452558328,2017-01-20,1484888400,1.0,1
2017-01-23,1485147600,84.73478452558328,87.1024321405234,2017-01-23,1485147600,1.0,0
2017-01-23,1485147600,84.73478452558328,87.1024321405234,2017-01-24,1485234000,1.0,0
2017-01-23,1485147600,84.73478452558328,87.1024321405234,2017-01-25,1485320400,1.0,0
2017-01-23,1485147600,84.73478452558328,87.1024321405234,2017-01-26,1485406800,1.0,0
2017-01-23,1485147600,84.73478452558328,87.1024321405234,2017-01-27,1485493200,1.0,0
2017-01-23,1485147600,84.73478452558328,87.1024321405234,2017-01-30,1485752400,1.0,0
2017-01-23,1485147600,84.73478452558328,87.1024321405234,2017-01-31,1485838800,1.0,0
2017-01-23,1485147600,84.73478452558328,87.1024321405234,2017-02-01,1485925200,1.0,0
2017-01-23,1485147600,84.73478452558328,87.1024321405234,2017-02-02,1486011600,1.0,0
2017-01-23,1485147600,84.73478452558328,87.1024321405234,2017-02-03,1486098000,1.0,0
2017-01-23,1485147600,84.73478452558328,87.1024321405234,2017-02-06,1486357200,1.0,0
2017-01-23,1485147600,84.73478452558328,87.1024321405234,2017-02-07,1486443600,1.0,0
2017-01-23,1485147600,84.73478452558328,87.1024321405234,2017-02-08,1486530000,1.0,0
2017-01-23,1485147600,84.73478452558328,87.1024321405234,2017-02-09,1486616400,1.0,0
2017-01-23,1485147600,84.73478452558328,87.1024321405234,2017-02-10,1486702800,1.0,0
2017-01-23,1485147600,84.73478452558328,87.1024321405234,2017-02-13,1486962000,1.0,0
2017-01-23,1485147600,84.73478452558328,87.1024321405234,2017-02-14,1487048400,1.0,0
2017-01-23,1485147600,84.73478452558328,87.1024321405234,2017-02-15,1487134800,1.0,1
2017-02-16,1487221200,87.1024321405234,89.0047280207963,2017-02-16,1487221200,1.0,0
2017-02-16,1487221200,87.1024321405234,89.0047280207963,2017-02-17,1487307600,1.0,0
2017-02-16,1487221200,87.1024321405234,89.0047280207963,2017-02-21,1487653200,1.0,0
2017-02-16,1487221200,87.1024321405234,89.0047280207963,2017-02-22,1487739600,1.0,0
2017-02-16,1487221200,87.1024321405234,89.0047280207963,2017-02-23,1487826000,1.0,0
2017-02-16,1487221200,87.1024321405234,89.0047280207963,2017-02-24,1487912400,1.0,0
2017-02-16,1487221200,87.1024321405234,89.0047280207963,2017-02-27,1488171600,1.0,0
2017-02-16,1487221200,87.1024321405234,89.0047280207963,2017-02-28,1488258000,1.0,0
2017-02-16,1487221200,87.1024321405234,89.0047280207963,2017-03-01,1488344400,1.0,0
2017-02-16,1487221200,87.1024321405234,89.0047280207963,2017-03-02,1488430800,1.0,0
2017-02-16,1487221200,87.1024321405234,89.0047280207963,2017-03-03,1488517200,1.0,1
2017-03-06,1488776400,85.2560547470681,87.1024321405234,2017-03-06,1488776400,-1.0,0
2017-03-06,1488776400,85.2560547470681,87.1024321405234,2017-03-07,1488862800,-1.0,1
2017-03-08,1488949200,87.1024321405234,90.19939019916598,2017-03-08,1488949200,1.0,0
2017-03-08,1488949200,87.1024321405234,90.19939019916598,2017-03-09,1489035600,1.0,0
2017-03-08,1488949200,87.1024321405234,90.19939019916598,2017-03-10,1489122000,1.0,0
2017-03-08,1488949200,87.1024321405234,90.19939019916598,2017-03-13,1489377600,1.0,1
2017-03-14,1489464000,83.8286309870225,87.1024321405234,2017-03-14,1489464000,-1.0,1
2017-03-15,1489550400,87.1024321405234,90.4368189259171,2017-03-15,1489550400,1.0,0
2017-03-15,1489550400,87.1024321405234,90.4368189259171,2017-03-16,1489636800,1.0,0
2017-03-15,1489550400,87.1024321405234,90.4368189259171,2017-03-17,1489723200,1.0,0
2017-03-15,1489550400,87.1024321405234,90.4368189259171,2017-03-20,1489982400,1.0,0
2017-03-15,1489550400,87.1024321405234,90.4368189259171,2017-03-21,1490068800,1.0,0
2017-03-15,1489550400,87.1024321405234,90.4368189259171,2017-03-22,1490155200,1.0,0
2017-03-15,1489550400,87.1024321405234,90.4368189259171,2017-03-23,1490241600,1.0,0
2017-03-15,1489550400,87.1024321405234,90.4368189259171,2017-03-24,1490328000,1.0,0
2017-03-15,1489550400,87.1024321405234,90.4368189259171,2017-03-27,1490587200,1.0,0
2017-03-15,1489550400,87.1024321405234,90.4368189259171,2017-03-28,1490673600,1.0,1
2017-03-29,1490760000,90.4368189259171,93.4834954532144,2017-03-29,1490760000,1.0,1
2017-03-30,1490846400,87.51904786485531,90.4368189259171,2017-03-30,1490846400,-1.0,0
2017-03-30,1490846400,87.51904786485531,90.4368189259171,2017-03-31,1490932800,-1.0,0
2017-03-30,1490846400,87.51904786485531,90.4368189259171,2017-04-03,1491192000,-1.0,0
2017-03-30,1490846400,87.51904786485531,90.4368189259171,2017-04-04,1491278400,-1.0,0
2017-03-30,1490846400,87.51904786485531,90.4368189259171,2017-04-05,1491364800,-1.0,0
2017-03-30,1490846400,87.51904786485531,90.4368189259171,2017-04-06,1491451200,-1.0,1
2017-04-07,1491537600,90.4368189259171,93.01835134006221,2017-04-07,1491537600,1.0,0
2017-04-07,1491537600,90.4368189259171,93.01835134006221,2017-04-10,1491796800,1.0,0
2017-04-07,1491537600,90.4368189259171,93.01835134006221,2017-04-11,1491883200,1.0,1
2017-04-12,1491969600,87.96508324301738,90.4368189259171,2017-04-12,1491969600,-1.0,0
2017-04-12,1491969600,87.96508324301738,90.4368189259171,2017-04-13,1492056000,-1.0,0
2017-04-12,1491969600,87.96508324301738,90.4368189259171,2017-04-17,1492401600,-1.0,0
2017-04-12,1491969600,87.96508324301738,90.4368189259171,2017-04-18,1492488000,-1.0,0
2017-04-12,1491969600,87.96508324301738,90.4368189259171,2017-04-19,1492574400,-1.0,1
2017-04-20,1492660800,90.4368189259171,92.79382111048098,2017-04-20,1492660800,1.0,0
2017-04-20,1492660800,90.4368189259171,92.79382111048098,2017-04-21,1492747200,1.0,0
2017-04-20,1492660800,90.4368189259171,92.79382111048098,2017-04-24,1493006400,1.0,1
2017-04-25,1493092800,92.79382111048098,95.36464100825316,2017-04-25,1493092800,1.0,0
2017-04-25,1493092800,92.79382111048098,95.36464100825316,2017-04-26,1493179200,1.0,0
2017-04-25,1493092800,92.79382111048098,95.36464100825316,2017-04-27,1493265600,1.0,0
2017-04-25,1493092800,92.79382111048098,95.36464100825316,2017-04-28,1493352000,1.0,0
2017-04-25,1493092800,92.79382111048098,95.36464100825316,2017-05-01,1493611200,1.0,0
2017-04-25,1493092800,92.79382111048098,95.36464100825316,2017-05-02,1493697600,1.0,0
2017-04-25,1493092800,92.79382111048098,95.36464100825316,2017-05-03,1493784000,1.0,0
2017-04-25,1493092800,92.79382111048098,95.36464100825316,2017-05-04,1493870400,1.0,0
2017-04-25,1493092800,92.79382111048098,95.36464100825316,2017-05-05,1493956800,1.0,0
2017-04-25,1493092800,92.79382111048098,95.36464100825316,2017-05-08,1494216000,1.0,1
2017-05-09,1494302400,90.31212420332182,92.79382111048098,2017-05-09,1494302400,-1.0,0
2017-05-09,1494302400,90.31212420332182,92.79382111048098,2017-05-10,1494388800,-1.0,0
2017-05-09,1494302400,90.31212420332182,92.79382111048098,2017-05-11,1494475200,-1.0,0
2017-05-09,1494302400,90.31212420332182,92.79382111048098,2017-05-12,1494561600,-1.0,0
2017-05-09,1494302400,90.31212420332182,92.79382111048098,2017-05-15,1494820800,-1.0,0
2017-05-09,1494302400,90.31212420332182,92.79382111048098,2017-05-16,1494907200,-1.0,0
2017-05-09,1494302400,90.31212420332182,92.79382111048098,2017-05-17,1494993600,-1.0,0
2017-05-09,1494302400,90.31212420332182,92.79382111048098,2017-05-18,1495080000,-1.0,0
2017-05-09,1494302400,90.31212420332182,92.79382111048098,2017-05-19,1495166400,-1.0,0
2017-05-09,1494302400,90.31212420332182,92.79382111048098,2017-05-22,1495425600,-1.0,0
2017-05-09,1494302400,90.31212420332182,92.79382111048098,2017-05-23,1495512000,-1.0,0
2017-05-09,1494302400,90.31212420332182,92.79382111048098,2017-05-24,1495598400,-1.0,0
2017-05-09,1494302400,90.31212420332182,92.79382111048098,2017-05-25,1495684800,-1.0,0
2017-05-09,1494302400,90.31212420332182,92.79382111048098,2017-05-26,1495771200,-1.0,0
2017-05-09,1494302400,90.31212420332182,92.79382111048098,2017-05-30,1496116800,-1.0,0
2017-05-09,1494302400,90.31212420332182,92.79382111048098,2017-05-31,1496203200,-1.0,1
2017-06-01,1496289600,92.79382111048098,95.17137270324972,2017-06-01,1496289600,1.0,0
2017-06-01,1496289600,92.79382111048098,95.17137270324972,2017-06-02,1496376000,1.0,0
2017-06-01,1496289600,92.79382111048098,95.17137270324972,2017-06-05,1496635200,1.0,0
2017-06-01,1496289600,92.79382111048098,95.17137270324972,2017-06-06,1496721600,1.0,1
2017-06-07,1496808000,90.4232769871712,92.79382111048098,2017-06-07,1496808000,-1.0,0
2017-06-07,1496808000,90.4232769871712,92.79382111048098,2017-06-08,1496894400,-1.0,1
2017-06-09,1496980800,92.79382111048098,95.19744333925317,2017-06-09,1496980800,1.0,0
2017-06-09,1496980800,92.79382111048098,95.19744333925317,2017-06-12,1497240000,1.0,1
2017-06-13,1497326400,95.19744333925317,97.57971964875573,2017-06-13,1497326400,1.0,0
2017-06-13,1497326400,95.19744333925317,97.57971964875573,2017-06-14,1497412800,1.0,0
2017-06-13,1497326400,95.19744333925317,97.57971964875573,2017-06-15,1497499200,1.0,0
2017-06-13,1497326400,95.19744333925317,97.57971964875573,2017-06-16,1497585600,1.0,0
2017-06-13,1497326400,95.19744333925317,97.57971964875573,2017-06-19,1497844800,1.0,1
2017-06-20,1497931200,93.18106515273837,95.19744333925317,2017-06-20,1497931200,-1.0,0
2017-06-20,1497931200,93.18106515273837,95.19744333925317,2017-06-21,1498017600,-1.0,0
2017-06-20,1497931200,93.18106515273837,95.19744333925317,2017-06-22,1498104000,-1.0,0
2017-06-20,1497931200,93.18106515273837,95.19744333925317,2017-06-23,1498190400,-1.0,1
2017-06-26,1498449600,95.19744333925317,96.9627314323667,2017-06-26,1498449600,1.0,1
2017-06-27,1498536000,93.47724725279062,95.19744333925317,2017-06-27,1498536000,-1.0,1
2017-06-28,1498622400,95.19744333925317,96.88476827668268,2017-06-28,1498622400,1.0,1
2017-06-29,1498708800,93.40692732592576,95.19744333925317,2017-06-29,1498708800,-1.0,0
2017-06-29,1498708800,93.40692732592576,95.19744333925317,2017-06-30,1498795200,-1.0,0
2017-06-29,1498708800,93.40692732592576,95.19744333925317,2017-07-03,1499054400,-1.0,0
2017-06-29,1498708800,93.40692732592576,95.19744333925317,2017-07-05,1499227200,-1.0,0
2017-06-29,1498708800,93.40692732592576,95.19744333925317,2017-07-06,1499313600,-1.0,1
2017-07-07,1499400000,95.19744333925317,96.9583980719099,2017-07-07,1499400000,1.0,0
2017-07-07,1499400000,95.19744333925317,96.9583980719099,2017-07-10,1499659200,1.0,0
2017-07-07,1499400000,95.19744333925317,96.9583980719099,2017-07-11,1499745600,1.0,0
2017-07-07,1499400000,95.19744333925317,96.9583980719099,2017-07-12,1499832000,1.0,0
2017-07-07,1499400000,95.19744333925317,96.9583980719099,2017-07-13,1499918400,1.0,0
2017-07-07,1499400000,95.19744333925317,96.9583980719099,2017-07-14,1500004800,1.0,1
2017-07-17,1500264000,96.9583980719099,98.57813989135005,2017-07-17,1500264000,1.0,0
2017-07-17,1500264000,96.9583980719099,98.57813989135005,2017-07-18,1500350400,1.0,0
2017-07-17,1500264000,96.9583980719099,98.57813989135005,2017-07-19,1500436800,1.0,1
2017-07-20,1500523200,94.62155668076193,96.9583980719099,2017-07-20,1500523200,-1.0,1
2017-07-21,1500609600,92.3243468175531,94.62155668076193,2017-07-21,1500609600,-1.0,1
2017-07-24,1500868800,90.00608051600206,92.3243468175531,2017-07-24,1500868800,-1.0,0
2017-07-24,1500868800,90.00608051600206,92.3243468175531,2017-07-25,1500955200,-1.0,0
2017-07-24,1500868800,90.00608051600206,92.3243468175531,2017-07-26,1501041600,-1.0,0
2017-07-24,1500868800,90.00608051600206,92.3243468175531,2017-07-27,1501128000,-1.0,0
2017-07-24,1500868800,90.00608051600206,92.3243468175531,2017-07-28,1501214400,-1.0,0
2017-07-24,1500868800,90.00608051600206,92.3243468175531,2017-07-31,1501473600,-1.0,0
2017-07-24,1500868800,90.00608051600206,92.3243468175531,2017-08-01,1501560000,-1.0,0
2017-07-24,1500868800,90.00608051600206,92.3243468175531,2017-08-02,1501646400,-1.0,1
2017-08-03,1501732800,87.5981042451601,90.00608051600206,2017-08-03,1501732800,-1.0,1
2017-08-04,1501819200,90.00608051600206,92.35134419606959,2017-08-04,1501819200,1.0,0
2017-08-04,1501819200,90.00608051600206,92.35134419606959,2017-08-07,1502078400,1.0,1
2017-08-08,1502164800,87.71893989390301,90.00608051600206,2017-08-08,1502164800,-1.0,0
2017-08-08,1502164800,87.71893989390301,90.00608051600206,2017-08-09,1502251200,-1.0,1
2017-08-10,1502337600,85.40394619423598,87.71893989390301,2017-08-10,1502337600,-1.0,0
2017-08-10,1502337600,85.40394619423598,87.71893989390301,2017-08-11,1502424000,-1.0,1
2017-08-14,1502683200,87.71893989390301,90.05978650228938,2017-08-14,1502683200,1.0,0
2017-08-14,1502683200,87.71893989390301,90.05978650228938,2017-08-15,1502769600,1.0,0
2017-08-14,1502683200,87.71893989390301,90.05978650228938,2017-08-16,1502856000,1.0,0
2017-08-14,1502683200,87.71893989390301,90.05978650228938,2017-08-17,1502942400,1.0,0
2017-08-14,1502683200,87.71893989390301,90.05978650228938,2017-08-18,1503028800,1.0,0
2017-08-14,1502683200,87.71893989390301,90.05978650228938,2017-08-21,1503288000,1.0,1
2017-08-22,1503374400,90.05978650228938,92.2756022313036,2017-08-22,1503374400,1.0,1
2017-08-23,1503460800,87.89681475391905,90.05978650228938,2017-08-23,1503460800,-1.0,0
2017-08-23,1503460800,87.89681475391905,90.05978650228938,2017-08-24,1503547200,-1.0,0
2017-08-23,1503460800,87.89681475391905,90.05978650228938,2017-08-25,1503633600,-1.0,0
2017-08-23,1503460800,87.89681475391905,90.05978650228938,2017-08-28,1503892800,-1.0,0
2017-08-23,1503460800,87.89681475391905,90.05978650228938,2017-08-29,1503979200,-1.0,0
2017-08-23,1503460800,87.89681475391905,90.05978650228938,2017-08-30,1504065600,-1.0,0
2017-08-23,1503460800,87.89681475391905,90.05978650228938,2017-08-31,1504152000,-1.0,1
2017-09-01,1504238400,90.05978650228938,91.88735297274023,2017-09-01,1504238400,1.0,1
2017-09-05,1504584000,88.20976049401361,90.05978650228938,2017-09-05,1504584000,-1.0,0
2017-09-05,1504584000,88.20976049401361,90.05978650228938,2017-09-06,1504670400,-1.0,0
2017-09-05,1504584000,88.20976049401361,90.05978650228938,2017-09-07,1504756800,-1.0,0
2017-09-05,1504584000,88.20976049401361,90.05978650228938,2017-09-08,1504843200,-1.0,1
2017-09-11,1505102400,90.05978650228938,92.22268890811937,2017-09-11,1505102400,1.0,0
2017-09-11,1505102400,90.05978650228938,92.22268890811937,2017-09-12,1505188800,1.0,0
2017-09-11,1505102400,90.05978650228938,92.22268890811937,2017-09-13,1505275200,1.0,0
2017-09-11,1505102400,90.05978650228938,92.22268890811937,2017-09-14,1505361600,1.0,0
2017-09-11,1505102400,90.05978650228938,92.22268890811937,2017-09-15,1505448000,1.0,0
2017-09-11,1505102400,90.05978650228938,92.22268890811937,2017-09-18,1505707200,1.0,1
2017-09-19,1505793600,92.22268890811937,94.37882694034099,2017-09-19,1505793600,1.0,0
2017-09-19,1505793600,92.22268890811937,94.37882694034099,2017-09-20,1505880000,1.0,0
2017-09-19,1505793600,92.22268890811937,94.37882694034099,2017-09-21,1505966400,1.0,0
2017-09-19,1505793600,92.22268890811937,94.37882694034099,2017-09-22,1506052800,1.0,0
2017-09-19,1505793600,92.22268890811937,94.37882694034099,2017-09-25,1506312000,1.0,0
2017-09-19,1505793600,92.22268890811937,94.37882694034099,2017-09-26,1506398400,1.0,0
2017-09-19,1505793600,92.22268890811937,94.37882694034099,2017-09-27,1506484800,1.0,0
2017-09-19,1505793600,92.22268890811937,94.37882694034099,2017-09-28,1506571200,1.0,0
2017-09-19,1505793600,92.22268890811937,94.37882694034099,2017-09-29,1506657600,1.0,1
2017-10-02,1506916800,94.37882694034099,96.62223240036414,2017-10-02,1506916800,1.0,1
2017-10-03,1507003200,96.62223240036414,98.86868032752851,2017-10-03,1507003200,1.0,0
2017-10-03,1507003200,96.62223240036414,98.86868032752851,2017-10-04,1507089600,1.0,0
2017-10-03,1507003200,96.62223240036414,98.86868032752851,2017-10-05,1507176000,1.0,0
2017-10-03,1507003200,96.62223240036414,98.86868032752851,2017-10-06,1507262400,1.0,0
2017-10-03,1507003200,96.62223240036414,98.86868032752851,2017-10-09,1507521600,1.0,0
2017-10-03,1507003200,96.62223240036414,98.86868032752851,2017-10-10,1507608000,1.0,0
2017-10-03,1507003200,96.62223240036414,98.86868032752851,2017-10-11,1507694400,1.0,0
2017-10-03,1507003200,96.62223240036414,98.86868032752851,2017-10-12,1507780800,1.0,0
2017-10-03,1507003200,96.62223240036414,98.86868032752851,2017-10-13,1507867200,1.0,0
2017-10-03,1507003200,96.62223240036414,98.86868032752851,2017-10-16,1508126400,1.0,0
2017-10-03,1507003200,96.62223240036414,98.86868032752851,2017-10-17,1508212800,1.0,0
2017-10-03,1507003200,96.62223240036414,98.86868032752851,2017-10-18,1508299200,1.0,0
2017-10-03,1507003200,96.62223240036414,98.86868032752851,2017-10-19,1508385600,1.0,1
2017-10-20,1508472000,98.86868032752851,101.48609397457884,2017-10-20,1508472000,1.0,0
2017-10-20,1508472000,98.86868032752851,101.48609397457884,2017-10-23,1508731200,1.0,0
2017-10-20,1508472000,98.86868032752851,101.48609397457884,2017-10-24,1508817600,1.0,1
2017-10-25,1508904000,101.48609397457884,104.01716605277474,2017-10-25,1508904000,1.0,0
2017-10-25,1508904000,101.48609397457884,104.01716605277474,2017-10-26,1508990400,1.0,0
2017-10-25,1508904000,101.48609397457884,104.01716605277474,2017-10-27,1509076800,1.0,1
2017-10-30,1509336000,98.83983546299122,101.48609397457884,2017-10-30,1509336000,-1.0,0
2017-10-30,1509336000,98.83983546299122,101.48609397457884,2017-10-31,1509422400,-1.0,0
2017-10-30,1509336000,98.83983546299122,101.48609397457884,2017-11-01,1509508800,-1.0,0
2017-10-30,1509336000,98.83983546299122,101.48609397457884,2017-11-02,1509595200,-1.0,0
2017-10-30,1509336000,98.83983546299122,101.48609397457884,2017-11-03,1509681600,-1.0,0
2017-10-30,1509336000,98.83983546299122,101.48609397457884,2017-11-06,1509944400,-1.0,0
2017-10-30,1509336000,98.83983546299122,101.48609397457884,2017-11-07,1510030800,-1.0,0
2017-10-30,1509336000,98.83983546299122,101.48609397457884,2017-11-08,1510117200,-1.0,0
2017-10-30,1509336000,98.83983546299122,101.48609397457884,2017-11-09,1510203600,-1.0,0
2017-10-30,1509336000,98.83983546299122,101.48609397457884,2017-11-10,1510290000,-1.0,0
2017-10-30,1509336000,98.83983546299122,101.48609397457884,2017-11-13,1510549200,-1.0,0
2017-10-30,1509336000,98.83983546299122,101.48609397457884,2017-11-14,1510635600,-1.0,1
2017-11-15,1510722000,96.89608217383781,98.83983546299122,2017-11-15,1510722000,-1.0,0
2017-11-15,1510722000,96.89608217383781,98.83983546299122,2017-11-16,1510808400,-1.0,0
2017-11-15,1510722000,96.89608217383781,98.83983546299122,2017-11-17,1510894800,-1.0,1
2017-11-20,1511154000,98.83983546299122,100.79946664967855,2017-11-20,1511154000,1.0,0
2017-11-20,1511154000,98.83983546299122,100.79946664967855,2017-11-21,1511240400,1.0,0
2017-11-20,1511154000,98.83983546299122,100.79946664967855,2017-11-22,1511326800,1.0,0
2017-11-20,1511154000,98.83983546299122,100.79946664967855,2017-11-24,1511499600,1.0,0
2017-11-20,1511154000,98.83983546299122,100.79946664967855,2017-11-27,1511758800,1.0,1
2017-11-28,1511845200,100.79946664967855,102.71284895727118,2017-11-28,1511845200,1.0,0
2017-11-28,1511845200,100.79946664967855,102.71284895727118,2017-11-29,1511931600,1.0,0
2017-11-28,1511845200,100.79946664967855,102.71284895727118,2017-11-30,1512018000,1.0,1
2017-12-01,1512104400,98.65564998430646,100.79946664967855,2017-12-01,1512104400,-1.0,1
2017-12-04,1512363600,100.79946664967855,103.12315355323835,2017-12-04,1512363600,1.0,0
2017-12-04,1512363600,100.79946664967855,103.12315355323835,2017-12-05,1512450000,1.0,1
2017-12-06,1512536400,98.56463457467035,100.79946664967855,2017-12-06,1512536400,-1.0,0
2017-12-06,1512536400,98.56463457467035,100.79946664967855,2017-12-07,1512622800,-1.0,0
2017-12-06,1512536400,98.56463457467035,100.79946664967855,2017-12-08,1512709200,-1.0,0
2017-12-06,1512536400,98.56463457467035,100.79946664967855,2017-12-11,1512968400,-1.0,0
2017-12-06,1512536400,98.56463457467035,100.79946664967855,2017-12-12,1513054800,-1.0,0
2017-12-06,1512536400,98.56463457467035,100.79946664967855,2017-12-13,1513141200,-1.0,0
2017-12-06,1512536400,98.56463457467035,100.79946664967855,2017-12-14,1513227600,-1.0,0
2017-12-06,1512536400,98.56463457467035,100.79946664967855,2017-12-15,1513314000,-1.0,0
2017-12-06,1512536400,98.56463457467035,100.79946664967855,2017-12-18,1513573200,-1.0,0
2017-12-06,1512536400,98.56463457467035,100.79946664967855,2017-12-19,1513659600,-1.0,0
2017-12-06,1512536400,98.56463457467035,100.79946664967855,2017-12-20,1513746000,-1.0,0
2017-12-06,1512536400,98.56463457467035,100.79946664967855,2017-12-21,1513832400,-1.0,0
2017-12-06,1512536400,98.56463457467035,100.79946664967855,2017-12-22,1513918800,-1.0,0
2017-12-06,1512536400,98.56463457467035,100.79946664967855,2017-12-26,1514264400,-1.0,1
2017-12-27,1514350800,100.79946664967855,102.67763351578154,2017-12-27,1514350800,1.0,0
2017-12-27,1514350800,100.79946664967855,102.67763351578154,2017-12-28,1514437200,1.0,0
2017-12-27,1514350800,100.79946664967855,102.67763351578154,2017-12-29,1514523600,1.0,0
2017-12-27,1514350800,100.79946664967855,102.67763351578154,2018-01-02,1514869200,1.0,0
2017-12-27,1514350800,100.79946664967855,102.67763351578154,2018-01-03,1514955600,1.0,0
2017-12-27,1514350800,100.79946664967855,102.67763351578154,2018-01-04,1515042000,1.0,1
2018-01-05,1515128400,102.67763351578154,104.72093542400107,2018-01-05,1515128400,1.0,0
2018-01-05,1515128400,102.67763351578154,104.72093542400107,2018-01-08,1515387600,1.0,1
2018-01-09,1515474000,100.72974564593918,102.67763351578154,2018-01-09,1515474000,-1.0,0
2018-01-09,1515474000,100.72974564593918,102.67763351578154,2018-01-10,1515560400,-1.0,0
2018-01-09,1515474000,100.72974564593918,102.67763351578154,2018-01-11,1515646800,-1.0,0
2018-01-09,1515474000,100.72974564593918,102.67763351578154,2018-01-12,1515733200,-1.0,0
2018-01-09,1515474000,100.72974564593918,102.67763351578154,2018-01-16,1516078800,-1.0,1
2018-01-17,1516165200,98.36254036529462,100.72974564593918,2018-01-17,1516165200,-1.0,1
2018-01-18,1516251600,100.72974564593918,103.7712934065377,2018-01-18,1516251600,1.0,0
2018-01-18,1516251600,100.72974564593918,103.7712934065377,2018-01-19,1516338000,1.0,0
2018-01-18,1516251600,100.72974564593918,103.7712934065377,2018-01-22,1516597200,1.0,0
2018-01-18,1516251600,100.72974564593918,103.7712934065377,2018-01-23,1516683600,1.0,0
2018-01-18,1516251600,100.72974564593918,103.7712934065377,2018-01-24,1516770000,1.0,1
2018-01-25,1516856400,103.7712934065377,106.84276819508544,2018-01-25,1516856400,1.0,0
2018-01-25,1516856400,103.7712934065377,106.84276819508544,2018-01-26,1516942800,1.0,1
2018-01-29,1517202000,100.6750421858001,103.7712934065377,2018-01-29,1517202000,-1.0,0
2018-01-29,1517202000,100.6750421858001,103.7712934065377,2018-01-30,1517288400,-1.0,0
2018-01-29,1517202000,100.6750421858001,103.7712934065377,2018-01-31,1517374800,-1.0,0
2018-01-29,1517202000,100.6750421858001,103.7712934065377,2018-02-01,1517461200,-1.0,1
2018-02-02,1517547600,97.55615440166102,100.6750421858001,2018-02-02,1517547600,-1.0,1
2018-02-05,1517806800,94.04804431638902,97.55615440166102,2018-02-05,1517806800,-1.0,1
2018-02-06,1517893200,97.55615440166102,101.32539948084217,2018-02-06,1517893200,1.0,0
2018-02-06,1517893200,97.55615440166102,101.32539948084217,2018-02-07,1517979600,1.0,1
2018-02-08,1518066000,93.53113185889768,97.55615440166102,2018-02-08,1518066000,-1.0,0
2018-02-08,1518066000,93.53113185889768,97.55615440166102,2018-02-09,1518152400,-1.0,1
2018-02-12,1518411600,97.55615440166102,101.75102587986001,2018-02-12,1518411600,1.0,0
2018-02-12,1518411600,97.55615440166102,101.75102587986001,2018-02-13,1518498000,1.0,0
2018-02-12,1518411600,97.55615440166102,101.75102587986001,2018-02-14,1518584400,1.0,0
2018-02-12,1518411600,97.55615440166102,101.75102587986001,2018-02-15,1518670800,1.0,0
2018-02-12,1518411600,97.55615440166102,101.75102587986001,2018-02-16,1518757200,1.0,0
2018-02-12,1518411600,97.55615440166102,101.75102587986001,2018-02-20,1519102800,1.0,0
2018-02-12,1518411600,97.55615440166102,101.75102587986001,2018-02-21,1519189200,1.0,0
2018-02-12,1518411600,97.55615440166102,101.75102587986001,2018-02-22,1519275600,1.0,1
2018-02-23,1519362000,101.75102587986001,105.45484927026575,2018-02-23,1519362000,1.0,0
2018-02-23,1519362000,101.75102587986001,105.45484927026575,2018-02-26,1519621200,1.0,1
2018-02-27,1519707600,98.10797407894894,101.75102587986001,2018-02-27,1519707600,-1.0,1
2018-02-28,1519794000,94.3882831209601,98.10797407894894,2018-02-28,1519794000,-1.0,0
2018-02-28,1519794000,94.3882831209601,98.10797407894894,2018-03-01,1519880400,-1.0,0
2018-02-28,1519794000,94.3882831209601,98.10797407894894,2018-03-02,1519966800,-1.0,0
2018-02-28,1519794000,94.3882831209601,98.10797407894894,2018-03-05,1520226000,-1.0,1
2018-03-06,1520312400,98.10797407894894,102.03121422501098,2018-03-06,1520312400,1.0,0
2018-03-06,1520312400,98.10797407894894,102.03121422501098,2018-03-07,1520398800,1.0,0
2018-03-06,1520312400,98.10797407894894,102.03121422501098,2018-03-08,1520485200,1.0,1
2018-03-09,1520571600,102.03121422501098,105.67454972096519,2018-03-09,1520571600,1.0,1
2018-03-12,1520827200,98.31125983591066,102.03121422501098,2018-03-12,1520827200,-1.0,0
2018-03-12,1520827200,98.31125983591066,102.03121422501098,2018-03-13,1520913600,-1.0,0
2018-03-12,1520827200,98.31125983591066,102.03121422501098,2018-03-14,1521000000,-1.0,0
2018-03-12,1520827200,98.31125983591066,102.03121422501098,2018-03-15,1521086400,-1.0,0
2018-03-12,1520827200,98.31125983591066,102.03121422501098,2018-03-16,1521172800,-1.0,0
2018-03-12,1520827200,98.31125983591066,102.03121422501098,2018-03-19,1521432000,-1.0,0
2018-03-12,1520827200,98.31125983591066,102.03121422501098,2018-03-20,1521518400,-1.0,0
2018-03-12,1520827200,98.31125983591066,102.03121422501098,2018-03-21,1521604800,-1.0,1
2018-03-22,1521691200,94.76066637367677,98.31125983591066,2018-03-22,1521691200,-1.0,0
2018-03-22,1521691200,94.76066637367677,98.31125983591066,2018-03-23,1521777600,-1.0,0
2018-03-22,1521691200,94.76066637367677,98.31125983591066,2018-03-26,1522036800,-1.0,0
2018-03-22,1521691200,94.76066637367677,98.31125983591066,2018-03-27,1522123200,-1.0,0
2018-03-22,1521691200,94.76066637367677,98.31125983591066,2018-03-28,1522209600,-1.0,0
2018-03-22,1521691200,94.76066637367677,98.31125983591066,2018-03-29,1522296000,-1.0,1
2018-04-02,1522641600,90.75055798946137,94.76066637367677,2018-04-02,1522641600,-1.0,1
2018-04-03,1522728000,94.76066637367677,98.78005273044822,2018-04-03,1522728000,1.0,0
2018-04-03,1522728000,94.76066637367677,98.78005273044822,2018-04-04,1522814400,1.0,0
2018-04-03,1522728000,94.76066637367677,98.78005273044822,2018-04-05,1522900800,1.0,0
2018-04-03,1522728000,94.76066637367677,98.78005273044822,2018-04-06,1522987200,1.0,0
2018-04-03,1522728000,94.76066637367677,98.78005273044822,2018-04-09,1523246400,1.0,0
2018-04-03,1522728000,94.76066637367677,98.78005273044822,2018-04-10,1523332800,1.0,0
2018-04-03,1522728000,94.76066637367677,98.78005273044822,2018-04-11,1523419200,1.0,0
2018-04-03,1522728000,94.76066637367677,98.78005273044822,2018-04-12,1523505600,1.0,0
2018-04-03,1522728000,94.76066637367677,98.78005273044822,2018-04-13,1523592000,1.0,0
2018-04-03,1522728000,94.76066637367677,98.78005273044822,2018-04-16,1523851200,1.0,0
2018-04-03,1522728000,94.76066637367677,98.78005273044822,2018-04-17,1523937600,1.0,0
2018-04-03,1522728000,94.76066637367677,98.78005273044822,2018-04-18,1524024000,1.0,0
2018-04-03,1522728000,94.76066637367677,98.78005273044822,2018-04-19,1524110400,1.0,1
2018-04-20,1524196800,90.77817203173116,94.76066637367677,2018-04-20,1524196800,-1.0,0
2018-04-20,1524196800,90.77817203173116,94.76066637367677,2018-04-23,1524456000,-1.0,0
2018-04-20,1524196800,90.77817203173116,94.76066637367677,2018-04-24,1524542400,-1.0,0
2018-04-20,1524196800,90.77817203173116,94.76066637367677,2018-04-25,1524628800,-1.0,0
2018-04-20,1524196800,90.77817203173116,94.76066637367677,2018-04-26,1524715200,-1.0,0
2018-04-20,1524196800,90.77817203173116,94.76066637367677,2018-04-27,1524801600,-1.0,0
2018-04-20,1524196800,90.77817203173116,94.76066637367677,2018-04-30,1525060800,-1.0,0
2018-04-20,1524196800,90.77817203173116,94.76066637367677,2018-05-01,1525147200,-1.0,0
2018-04-20,1524196800,90.77817203173116,94.76066637367677,2018-05-02,1525233600,-1.0,0
2018-04-20,1524196800,90.77817203173116,94.76066637367677,2018-05-03,1525320000,-1.0,0
2018-04-20,1524196800,90.77817203173116,94.76066637367677,2018-05-04,1525406400,-1.0,0
2018-04-20,1524196800,90.77817203173116,94.76066637367677,2018-05-07,1525665600,-1.0,0
2018-04-20,1524196800,90.77817203173116,94.76066637367677,2018-05-08,1525752000,-1.0,0
2018-04-20,1524196800,90.77817203173116,94.76066637367677,2018-05-09,1525838400,-1.0,0
2018-04-20,1524196800,90.77817203173116,94.76066637367677,2018-05-10,1525924800,-1.0,1
2018-05-11,1526011200,86.85302968187925,90.77817203173116,2018-05-11,1526011200,-1.0,0
2018-05-11,1526011200,86.85302968187925,90.77817203173116,2018-05-14,1526270400,-1.0,0
2018-05-11,1526011200,86.85302968187925,90.77817203173116,2018-05-15,1526356800,-1.0,0
2018-05-11,1526011200,86.85302968187925,90.77817203173116,2018-05-16,1526443200,-1.0,1
2018-05-17,1526529600,90.77817203173116,94.52030371264848,2018-05-17,1526529600,1.0,0
2018-05-17,1526529600,90.77817203173116,94.52030371264848,2018-05-18,1526616000,1.0,0
2018-05-17,1526529600,90.77817203173116,94.52030371264848,2018-05-21,1526875200,1.0,1
2018-05-22,1526961600,87.27113074055937,90.77817203173116,2018-05-22,1526961600,-1.0,0
2018-05-22,1526961600,87.27113074055937,90.77817203173116,2018-05-23,1527048000,-1.0,0
2018-05-22,1526961600,87.27113074055937,90.77817203173116,2018-05-24,1527134400,-1.0,0
2018-05-22,1526961600,87.27113074055937,90.77817203173116,2018-05-25,1527220800,-1.0,0
2018-05-22,1526961600,87.27113074055937,90.77817203173116,2018-05-29,1527566400,-1.0,0
2018-05-22,1526961600,87.27113074055937,90.77817203173116,2018-05-30,1527652800,-1.0,0
2018-05-22,1526961600,87.27113074055937,90.77817203173116,2018-05-31,1527739200,-1.0,0
2018-05-22,1526961600,87.27113074055937,90.77817203173116,2018-06-01,1527825600,-1.0,0
2018-05-22,1526961600,87.27113074055937,90.77817203173116,2018-06-04,1528084800,-1.0,0
2018-05-22,1526961600,87.27113074055937,90.77817203173116,2018-06-05,1528171200,-1.0,1
2018-06-06,1528257600,90.77817203173116,93.75333924769711,2018-06-06,1528257600,1.0,1
2018-06-07,1528344000,87.81494533119134,90.77817203173116,2018-06-07,1528344000,-1.0,1
2018-06-08,1528430400,90.77817203173116,93.73802539651814,2018-06-08,1528430400,1.0,0
2018-06-08,1528430400,90.77817203173116,93.73802539651814,2018-06-11,1528689600,1.0,1
2018-06-12,1528776000,87.95063520188933,90.77817203173116,2018-06-12,1528776000,-1.0,0
2018-06-12,1528776000,87.95063520188933,90.77817203173116,2018-06-13,1528862400,-1.0,1
2018-06-14,1528948800,90.77817203173116,93.48831348195192,2018-06-14,1528948800,1.0,0
2018-06-14,1528948800,90.77817203173116,93.48831348195192,2018-06-15,1529035200,1.0,0
2018-06-14,1528948800,90.77817203173116,93.48831348195192,2018-06-18,1529294400,1.0,0
2018-06-14,1528948800,90.77817203173116,93.48831348195192,2018-06-19,1529380800,1.0,0
2018-06-14,1528948800,90.77817203173116,93.48831348195192,2018-06-20,1529467200,1.0,0
2018-06-14,1528948800,90.77817203173116,93.48831348195192,2018-06-21,1529553600,1.0,0
2018-06-14,1528948800,90.77817203173116,93.48831348195192,2018-06-22,1529640000,1.0,0
2018-06-14,1528948800,90.77817203173116,93.48831348195192,2018-06-25,1529899200,1.0,0
2018-06-14,1528948800,90.77817203173116,93.48831348195192,2018-06-26,1529985600,1.0,0
2018-06-14,1528948800,90.77817203173116,93.48831348195192,2018-06-27,1530072000,1.0,0
2018-06-14,1528948800,90.77817203173116,93.48831348195192,2018-06-28,1530158400,1.0,1
2018-06-29,1530244800,88.02984188018371,90.77817203173116,2018-06-29,1530244800,-1.0,0
2018-06-29,1530244800,88.02984188018371,90.77817203173116,2018-07-02,1530504000,-1.0,0
2018-06-29,1530244800,88.02984188018371,90.77817203173116,2018-07-03,1530590400,-1.0,0
2018-06-29,1530244800,88.02984188018371,90.77817203173116,2018-07-05,1530763200,-1.0,0
2018-06-29,1530244800,88.02984188018371,90.77817203173116,2018-07-06,1530849600,-1.0,0
2018-06-29,1530244800,88.02984188018371,90.77817203173116,2018-07-09,1531108800,-1.0,1
2018-07-10,1531195200,90.77817203173116,93.41127464767729,2018-07-10,1531195200,1.0,1
2018-07-11,1531281600,88.16857674549546,90.77817203173116,2018-07-11,1531281600,-1.0,0
2018-07-11,1531281600,88.16857674549546,90.77817203173116,2018-07-12,1531368000,-1.0,1
2018-07-13,1531454400,90.77817203173116,93.28533327343439,2018-07-13,1531454400,1.0,1
2018-07-16,1531713600,88.21223659300674,90.77817203173116,2018-07-16,1531713600,-1.0,1
2018-07-17,1531800000,90.77817203173116,93.56325493911812,2018-07-17,1531800000,1.0,0
2018-07-17,1531800000,90.77817203173116,93.56325493911812,2018-07-18,1531886400,1.0,0
2018-07-17,1531800000,90.77817203173116,93.56325493911812,2018-07-19,1531972800,1.0,0
2018-07-17,1531800000,90.77817203173116,93.56325493911812,2018-07-20,1532059200,1.0,0
2018-07-17,1531800000,90.77817203173116,93.56325493911812,2018-07-23,1532318400,1.0,0
2018-07-17,1531800000,90.77817203173116,93.56325493911812,2018-07-24,1532404800,1.0,1
2018-07-25,1532491200,93.56325493911812,96.69601306991417,2018-07-25,1532491200,1.0,0
2018-07-25,1532491200,93.56325493911812,96.69601306991417,2018-07-26,1532577600,1.0,0
2018-07-25,1532491200,93.56325493911812,96.69601306991417,2018-07-27,1532664000,1.0,0
2018-07-25,1532491200,93.56325493911812,96.69601306991417,2018-07-30,1532923200,1.0,0
2018-07-25,1532491200,93.56325493911812,96.69601306991417,2018-07-31,1533009600,1.0,0
2018-07-25,1532491200,93.56325493911812,96.69601306991417,2018-08-01,1533096000,1.0,0
2018-07-25,1532491200,93.56325493911812,96.69601306991417,2018-08-02,1533182400,1.0,1
2018-08-03,1533268800,96.69601306991417,99.61856246934543,2018-08-03,1533268800,1.0,1
2018-08-06,1533528000,93.84207434187087,96.69601306991417,2018-08-06,1533528000,-1.0,0
2018-08-06,1533528000,93.84207434187087,96.69601306991417,2018-08-07,1533614400,-1.0,0
2018-08-06,1533528000,93.84207434187087,96.69601306991417,2018-08-08,1533700800,-1.0,0
2018-08-06,1533528000,93.84207434187087,96.69601306991417,2018-08-09,1533787200,-1.0,0
2018-08-06,1533528000,93.84207434187087,96.69601306991417,2018-08-10,1533873600,-1.0,1
2018-08-13,1534132800,91.03665494044701,93.84207434187087,2018-08-13,1534132800,-1.0,0
2018-08-13,1534132800,91.03665494044701,93.84207434187087,2018-08-14,1534219200,-1.0,1
2018-08-15,1534305600,93.84207434187087,96.57961454003735,2018-08-15,1534305600,1.0,0
2018-08-15,1534305600,93.84207434187087,96.57961454003735,2018-08-16,1534392000,1.0,0
2018-08-15,1534305600,93.84207434187087,96.57961454003735,2018-08-17,1534478400,1.0,0
2018-08-15,1534305600,93.84207434187087,96.57961454003735,2018-08-20,1534737600,1.0,1
2018-08-21,1534824000,96.57961454003735,99.3262108436565,2018-08-21,1534824000,1.0,0
2018-08-21,1534824000,96.57961454003735,99.3262108436565,2018-08-22,1534910400,1.0,1
2018-08-23,1534996800,93.97048813538615,96.57961454003735,2018-08-23,1534996800,-1.0,1
2018-08-24,1535083200,96.57961454003735,99.12580334435633,2018-08-24,1535083200,1.0,0
2018-08-24,1535083200,96.57961454003735,99.12580334435633,2018-08-27,1535342400,1.0,1
2018-08-28,1535428800,94.09562521386437,96.57961454003735,2018-08-28,1535428800,-1.0,1
2018-08-29,1535515200,96.57961454003735,99.16131891434085,2018-08-29,1535515200,1.0,0
2018-08-29,1535515200,96.57961454003735,99.16131891434085,2018-08-30,1535601600,1.0,0
2018-08-29,1535515200,96.57961454003735,99.16131891434085,2018-08-31,1535688000,1.0,1
2018-09-04,1536033600,94.05290152606331,96.57961454003735,2018-09-04,1536033600,-1.0,1
2018-09-05,1536120000,96.57961454003735,99.17784805301325,2018-09-05,1536120000,1.0,0
2018-09-05,1536120000,96.57961454003735,99.17784805301325,2018-09-06,1536206400,1.0,0
2018-09-05,1536120000,96.57961454003735,99.17784805301325,2018-09-07,1536292800,1.0,0
2018-09-05,1536120000,96.57961454003735,99.17784805301325,2018-09-10,1536552000,1.0,0
2018-09-05,1536120000,96.57961454003735,99.17784805301325,2018-09-11,1536638400,1.0,0
2018-09-05,1536120000,96.57961454003735,99.17784805301325,2018-09-12,1536724800,1.0,0
2018-09-05,1536120000,96.57961454003735,99.17784805301325,2018-09-13,1536811200,1.0,0
2018-09-05,1536120000,96.57961454003735,99.17784805301325,2018-09-14,1536897600,1.0,0
2018-09-05,1536120000,96.57961454003735,99.17784805301325,2018-09-17,1537156800,1.0,1
2018-09-18,1537243200,99.17784805301325,101.64261323407565,2018-09-18,1537243200,1.0,0
2018-09-18,1537243200,99.17784805301325,101.64261323407565,2018-09-19,1537329600,1.0,1
2018-09-20,1537416000,101.64261323407565,104.13528321162435,2018-09-20,1537416000,1.0,0
2018-09-20,1537416000,101.64261323407565,104.13528321162435,2018-09-21,1537502400,1.0,1
2018-09-24,1537761600,98.72483146771988,101.64261323407565,2018-09-24,1537761600,-1.0,1
2018-09-25,1537848000,95.76989125610382,98.72483146771988,2018-09-25,1537848000,-1.0,0
2018-09-25,1537848000,95.76989125610382,98.72483146771988,2018-09-26,1537934400,-1.0,1
2018-09-27,1538020800,92.85080505323077,95.76989125610382,2018-09-27,1538020800,-1.0,0
2018-09-27,1538020800,92.85080505323077,95.76989125610382,2018-09-28,1538107200,-1.0,1
2018-10-01,1538366400,95.76989125610382,98.6355625228668,2018-10-01,1538366400,1.0,0
2018-10-01,1538366400,95.76989125610382,98.6355625228668,2018-10-02,1538452800,1.0,1
2018-10-03,1538539200,92.88121552098676,95.76989125610382,2018-10-03,1538539200,-1.0,0
2018-10-03,1538539200,92.88121552098676,95.76989125610382,2018-10-04,1538625600,-1.0,0
2018-10-03,1538539200,92.88121552098676,95.76989125610382,2018-10-05,1538712000,-1.0,1
2018-10-08,1538971200,95.76989125610382,98.57333826414033,2018-10-08,1538971200,1.0,1
2018-10-09,1539057600,91.89511903435563,95.76989125610382,2018-10-09,1539057600,-1.0,1
2018-10-10,1539144000,87.85097339987517,91.89511903435563,2018-10-10,1539144000,-1.0,1
2018-10-11,1539230400,83.6778381678576,87.85097339987517,2018-10-11,1539230400,-1.0,1
2018-10-12,1539316800,79.39778402384128,83.6778381678576,2018-10-12,1539316800,-1.0,1
2018-10-15,1539576000,83.6778381678576,87.91188844444417,2018-10-15,1539576000,1.0,0
2018-10-15,1539576000,83.6778381678576,87.91188844444417,2018-10-16,1539662400,1.0,0
2018-10-15,1539576000,83.6778381678576,87.91188844444417,2018-10-17,1539748800,1.0,0
2018-10-15,1539576000,83.6778381678576,87.91188844444417,2018-10-18,1539835200,1.0,1
2018-10-19,1539921600,87.91188844444417,92.05024834525605,2018-10-19,1539921600,1.0,0
2018-10-19,1539921600,87.91188844444417,92.05024834525605,2018-10-22,1540180800,1.0,0
2018-10-19,1539921600,87.91188844444417,92.05024834525605,2018-10-23,1540267200,1.0,1
2018-10-24,1540353600,83.70274970461776,87.91188844444417,2018-10-24,1540353600,-1.0,1
2018-10-25,1540440000,87.91188844444417,92.53651727428299,2018-10-25,1540440000,1.0,0
2018-10-25,1540440000,87.91188844444417,92.53651727428299,2018-10-26,1540526400,1.0,0
2018-10-25,1540440000,87.91188844444417,92.53651727428299,2018-10-29,1540785600,1.0,0
2018-10-25,1540440000,87.91188844444417,92.53651727428299,2018-10-30,1540872000,1.0,0
2018-10-25,1540440000,87.91188844444417,92.53651727428299,2018-10-31,1540958400,1.0,1
2018-11-01,1541044800,92.53651727428299,97.11428489364795,2018-11-01,1541044800,1.0,0
2018-11-01,1541044800,92.53651727428299,97.11428489364795,2018-11-02,1541131200,1.0,0
2018-11-01,1541044800,92.53651727428299,97.11428489364795,2018-11-05,1541394000,1.0,0
2018-11-01,1541044800,92.53651727428299,97.11428489364795,2018-11-06,1541480400,1.0,0
2018-11-01,1541044800,92.53651727428299,97.11428489364795,2018-11-07,1541566800,1.0,0
2018-11-01,1541044800,92.53651727428299,97.11428489364795,2018-11-08,1541653200,1.0,0
2018-11-01,1541044800,92.53651727428299,97.11428489364795,2018-11-09,1541739600,1.0,0
2018-11-01,1541044800,92.53651727428299,97.11428489364795,2018-11-12,1541998800,1.0,1
2018-11-13,1542085200,88.38482356247988,92.53651727428299,2018-11-13,1542085200,-1.0,1
2018-11-14,1542171600,92.53651727428299,96.66037572095729,2018-11-14,1542171600,1.0,0
2018-11-14,1542171600,92.53651727428299,96.66037572095729,2018-11-15,1542258000,1.0,0
2018-11-14,1542171600,92.53651727428299,96.66037572095729,2018-11-16,1542344400,1.0,0
2018-11-14,1542171600,92.53651727428299,96.66037572095729,2018-11-19,1542603600,1.0,0
2018-11-14,1542171600,92.53651727428299,96.66037572095729,2018-11-20,1542690000,1.0,0
2018-11-14,1542171600,92.53651727428299,96.66037572095729,2018-11-21,1542776400,1.0,0
2018-11-14,1542171600,92.53651727428299,96.66037572095729,2018-11-23,1542949200,1.0,0
2018-11-14,1542171600,92.53651727428299,96.66037572095729,2018-11-26,1543208400,1.0,0
2018-11-14,1542171600,92.53651727428299,96.66037572095729,2018-11-27,1543294800,1.0,0
2018-11-14,1542171600,92.53651727428299,96.66037572095729,2018-11-28,1543381200,1.0,0
2018-11-14,1542171600,92.53651727428299,96.66037572095729,2018-11-29,1543467600,1.0,0
2018-11-14,1542171600,92.53651727428299,96.66037572095729,2018-11-30,1543554000,1.0,1
2018-12-03,1543813200,96.66037572095729,100.41398714462716,2018-12-03,1543813200,1.0,1
2018-12-04,1543899600,92.70045082754956,96.66037572095729,2018-12-04,1543899600,-1.0,0
2018-12-04,1543899600,92.70045082754956,96.66037572095729,2018-12-06,1544072400,-1.0,1
2018-12-07,1544158800,88.35544415925412,92.70045082754956,2018-12-07,1544158800,-1.0,0
2018-12-07,1544158800,88.35544415925412,92.70045082754956,2018-12-10,1544418000,-1.0,0
2018-12-07,1544158800,88.35544415925412,92.70045082754956,2018-12-11,1544504400,-1.0,0
2018-12-07,1544158800,88.35544415925412,92.70045082754956,2018-12-12,1544590800,-1.0,0
2018-12-07,1544158800,88.35544415925412,92.70045082754956,2018-12-13,1544677200,-1.0,1
2018-12-14,1544763600,83.90804440972376,88.35544415925412,2018-12-14,1544763600,-1.0,0
2018-12-14,1544763600,83.90804440972376,88.35544415925412,2018-12-17,1545022800,-1.0,0
2018-12-14,1544763600,83.90804440972376,88.35544415925412,2018-12-18,1545109200,-1.0,0
2018-12-14,1544763600,83.90804440972376,88.35544415925412,2018-12-19,1545195600,-1.0,0
2018-12-14,1544763600,83.90804440972376,88.35544415925412,2018-12-20,1545282000,-1.0,0
2018-12-14,1544763600,83.90804440972376,88.35544415925412,2018-12-21,1545368400,-1.0,0
2018-12-14,1544763600,83.90804440972376,88.35544415925412,2018-12-24,1545627600,-1.0,0
2018-12-14,1544763600,83.90804440972376,88.35544415925412,2018-12-26,1545800400,-1.0,1
2018-12-27,1545886800,88.35544415925412,93.2604754906937,2018-12-27,1545886800,1.0,0
2018-12-27,1545886800,88.35544415925412,93.2604754906937,2018-12-28,1545973200,1.0,0
2018-12-27,1545886800,88.35544415925412,93.2604754906937,2018-12-31,1546232400,1.0,0
2018-12-27,1545886800,88.35544415925412,93.2604754906937,2019-01-02,1546405200,1.0,1
2019-01-03,1546491600,83.70056374855947,88.35544415925412,2019-01-03,1546491600,-1.0,0
2019-01-03,1546491600,83.70056374855947,88.35544415925412,2019-01-04,1546578000,-1.0,0
2019-01-03,1546491600,83.70056374855947,88.35544415925412,2019-01-07,1546837200,-1.0,1
2019-01-08,1546923600,88.35544415925412,92.98696757845825,2019-01-08,1546923600,1.0,0
2019-01-08,1546923600,88.35544415925412,92.98696757845825,2019-01-09,1547010000,1.0,0
2019-01-08,1546923600,88.35544415925412,92.98696757845825,2019-01-10,1547096400,1.0,0
2019-01-08,1546923600,88.35544415925412,92.98696757845825,2019-01-11,1547182800,1.0,0
2019-01-08,1546923600,88.35544415925412,92.98696757845825,2019-01-14,1547442000,1.0,0
2019-01-08,1546923600,88.35544415925412,92.98696757845825,2019-01-15,1547528400,1.0,0
2019-01-08,1546923600,88.35544415925412,92.98696757845825,2019-01-16,1547614800,1.0,1
2019-01-17,1547701200,92.98696757845825,97.35765704315746,2019-01-17,1547701200,1.0,1
2019-01-18,1547787600,88.58904164695183,92.98696757845825,2019-01-18,1547787600,-1.0,0
2019-01-18,1547787600,88.58904164695183,92.98696757845825,2019-01-22,1548133200,-1.0,0
2019-01-18,1547787600,88.58904164695183,92.98696757845825,2019-01-23,1548219600,-1.0,0
2019-01-18,1547787600,88.58904164695183,92.98696757845825,2019-01-24,1548306000,-1.0,0
2019-01-18,1547787600,88.58904164695183,92.98696757845825,2019-01-25,1548392400,-1.0,0
2019-01-18,1547787600,88.58904164695183,92.98696757845825,2019-01-28,1548651600,-1.0,0
2019-01-18,1547787600,88.58904164695183,92.98696757845825,2019-01-29,1548738000,-1.0,0
2019-01-18,1547787600,88.58904164695183,92.98696757845825,2019-01-30,1548824400,-1.0,0
2019-01-18,1547787600,88.58904164695183,92.98696757845825,2019-01-31,1548910800,-1.0,1
2019-02-01,1548997200,92.98696757845825,96.66471678416907,2019-02-01,1548997200,1.0,0
2019-02-01,1548997200,92.98696757845825,96.66471678416907,2019-02-04,1549256400,1.0,0
2019-02-01,1548997200,92.98696757845825,96.66471678416907,2019-02-05,1549342800,1.0,0
2019-02-01,1548997200,92.98696757845825,96.66471678416907,2019-02-06,1549429200,1.0,1
2019-02-07,1549515600,89.61376945620952,92.98696757845825,2019-02-07,1549515600,-1.0,0
2019-02-07,1549515600,89.61376945620952,92.98696757845825,2019-02-08,1549602000,-1.0,0
2019-02-07,1549515600,89.61376945620952,92.98696757845825,2019-02-11,1549861200,-1.0,1
2019-02-12,1549947600,92.98696757845825,96.26157409251817,2019-02-12,1549947600,1.0,0
2019-02-12,1549947600,92.98696757845825,96.26157409251817,2019-02-13,1550034000,1.0,0
2019-02-12,1549947600,92.98696757845825,96.26157409251817,2019-02-14,1550120400,1.0,0
2019-02-12,1549947600,92.98696757845825,96.26157409251817,2019-02-15,1550206800,1.0,0
2019-02-12,1549947600,92.98696757845825,96.26157409251817,2019-02-19,1550552400,1.0,1
2019-02-20,1550638800,96.26157409251817,99.45033478453797,2019-02-20,1550638800,1.0,0
2019-02-20,1550638800,96.26157409251817,99.45033478453797,2019-02-21,1550725200,1.0,0
2019-02-20,1550638800,96.26157409251817,99.45033478453797,2019-02-22,1550811600,1.0,0
2019-02-20,1550638800,96.26157409251817,99.45033478453797,2019-02-25,1551070800,1.0,0
2019-02-20,1550638800,96.26157409251817,99.45033478453797,2019-02-26,1551157200,1.0,0
2019-02-20,1550638800,96.26157409251817,99.45033478453797,2019-02-27,1551243600,1.0,0
2019-02-20,1550638800,96.26157409251817,99.45033478453797,2019-02-28,1551330000,1.0,1
2019-03-01,1551416400,99.45033478453797,102.16713748583264,2019-03-01,1551416400,1.0,1
2019-03-04,1551675600,96.5791608476215,99.45033478453797,2019-03-04,1551675600,-1.0,0
2019-03-04,1551675600,96.5791608476215,99.45033478453797,2019-03-05,1551762000,-1.0,0
2019-03-04,1551675600,96.5791608476215,99.45033478453797,2019-03-06,1551848400,-1.0,0
2019-03-04,1551675600,96.5791608476215,99.45033478453797,2019-03-07,1551934800,-1.0,0
2019-03-04,1551675600,96.5791608476215,99.45033478453797,2019-03-08,1552021200,-1.0,0
2019-03-04,1551675600,96.5791608476215,99.45033478453797,2019-03-11,1552276800,-1.0,0
2019-03-04,1551675600,96.5791608476215,99.45033478453797,2019-03-12,1552363200,-1.0,0
2019-03-04,1551675600,96.5791608476215,99.45033478453797,2019-03-13,1552449600,-1.0,0
2019-03-04,1551675600,96.5791608476215,99.45033478453797,2019-03-14,1552536000,-1.0,0
2019-03-04,1551675600,96.5791608476215,99.45033478453797,2019-03-15,1552622400,-1.0,0
2019-03-04,1551675600,96.5791608476215,99.45033478453797,2019-03-18,1552881600,-1.0,0
2019-03-04,1551675600,96.5791608476215,99.45033478453797,2019-03-19,1552968000,-1.0,0
2019-03-04,1551675600,96.5791608476215,99.45033478453797,2019-03-20,1553054400,-1.0,1
2019-03-21,1553140800,99.45033478453797,102.25254276232494,2019-03-21,1553140800,1.0,1
2019-03-22,1553227200,96.14757023373579,99.45033478453797,2019-03-22,1553227200,-1.0,1
2019-03-25,1553486400,92.91357457941949,96.14757023373579,2019-03-25,1553486400,-1.0,0
2019-03-25,1553486400,92.91357457941949,96.14757023373579,2019-03-26,1553572800,-1.0,1
2019-03-27,1553659200,96.14757023373579,99.33950526220241,2019-03-27,1553659200,1.0,0
2019-03-27,1553659200,96.14757023373579,99.33950526220241,2019-03-28,1553745600,1.0,1
2019-03-29,1553832000,99.33950526220241,102.44953087348229,2019-03-29,1553832000,1.0,0
2019-03-29,1553832000,99.33950526220241,102.44953087348229,2019-04-01,1554091200,1.0,0
2019-03-29,1553832000,99.33950526220241,102.44953087348229,2019-04-02,1554177600,1.0,0
2019-03-29,1553832000,99.33950526220241,102.44953087348229,2019-04-03,1554264000,1.0,0
2019-03-29,1553832000,99.33950526220241,102.44953087348229,2019-04-04,1554350400,1.0,0
2019-03-29,1553832000,99.33950526220241,102.44953087348229,2019-04-05,1554436800,1.0,0
2019-03-29,1553832000,99.33950526220241,102.44953087348229,2019-04-08,1554696000,1.0,0
2019-03-29,1553832000,99.33950526220241,102.44953087348229,2019-04-09,1554782400,1.0,0
2019-03-29,1553832000,99.33950526220241,102.44953087348229,2019-04-10,1554868800,1.0,0
2019-03-29,1553832000,99.33950526220241,102.44953087348229,2019-04-11,1554955200,1.0,0
2019-03-29,1553832000,99.33950526220241,102.44953087348229,2019-04-12,1555041600,1.0,1
2019-04-15,1555300800,102.44953087348229,104.9812231393576,2019-04-15,1555300800,1.0,0
2019-04-15,1555300800,102.44953087348229,104.9812231393576,2019-04-16,1555387200,1.0,0
2019-04-15,1555300800,102.44953087348229,104.9812231393576,2019-04-17,1555473600,1.0,1
2019-04-18,1555560000,104.9812231393576,107.8142362254101,2019-04-18,1555560000,1.0,1
2019-04-22,1555905600,102.0111395594517,104.9812231393576,2019-04-22,1555905600,-1.0,0
2019-04-22,1555905600,102.0111395594517,104.9812231393576,2019-04-23,1555992000,-1.0,0
2019-04-22,1555905600,102.0111395594517,104.9812231393576,2019-04-24,1556078400,-1.0,0
2019-04-22,1555905600,102.0111395594517,104.9812231393576,2019-04-25,1556164800,-1.0,0
2019-04-22,1555905600,102.0111395594517,104.9812231393576,2019-04-26,1556251200,-1.0,0
2019-04-22,1555905600,102.0111395594517,104.9812231393576,2019-04-29,1556510400,-1.0,0
2019-04-22,1555905600,102.0111395594517,104.9812231393576,2019-04-30,1556596800,-1.0,0
2019-04-22,1555905600,102.0111395594517,104.9812231393576,2019-05-01,1556683200,-1.0,0
2019-04-22,1555905600,102.0111395594517,104.9812231393576,2019-05-02,1556769600,-1.0,0
2019-04-22,1555905600,102.0111395594517,104.9812231393576,2019-05-03,1556856000,-1.0,0
2019-04-22,1555905600,102.0111395594517,104.9812231393576,2019-05-06,1557115200,-1.0,1
2019-05-07,1557201600,98.95364313064614,102.0111395594517,2019-05-07,1557201600,-1.0,0
2019-05-07,1557201600,98.95364313064614,102.0111395594517,2019-05-08,1557288000,-1.0,0
2019-05-07,1557201600,98.95364313064614,102.0111395594517,2019-05-09,1557374400,-1.0,0
2019-05-07,1557201600,98.95364313064614,102.0111395594517,2019-05-10,1557460800,-1.0,1
2019-05-13,1557720000,95.88925533641677,98.95364313064614,2019-05-13,1557720000,-1.0,1
2019-05-14,1557806400,98.95364313064614,101.96243179671627,2019-05-14,1557806400,1.0,0
2019-05-14,1557806400,98.95364313064614,101.96243179671627,2019-05-15,1557892800,1.0,0
2019-05-14,1557806400,98.95364313064614,101.96243179671627,2019-05-16,1557979200,1.0,0
2019-05-14,1557806400,98.95364313064614,101.96243179671627,2019-05-17,1558065600,1.0,1
2019-05-20,1558324800,95.70499321676574,98.95364313064614,2019-05-20,1558324800,-1.0,0
2019-05-20,1558324800,95.70499321676574,98.95364313064614,2019-05-21,1558411200,-1.0,0
2019-05-20,1558324800,95.70499321676574,98.95364313064614,2019-05-22,1558497600,-1.0,1
2019-05-23,1558584000,92.45375784475583,95.70499321676574,2019-05-23,1558584000,-1.0,1
2019-05-24,1558670400,95.70499321676574,98.86799749077495,2019-05-24,1558670400,1.0,1
2019-05-28,1559016000,92.65220353375719,95.70499321676574,2019-05-28,1559016000,-1.0,0
2019-05-28,1559016000,92.65220353375719,95.70499321676574,2019-05-29,1559102400,-1.0,0
2019-05-28,1559016000,92.65220353375719,95.70499321676574,2019-05-30,1559188800,-1.0,0
2019-05-28,1559016000,92.65220353375719,95.70499321676574,2019-05-31,1559275200,-1.0,1
2019-06-03,1559534400,95.70499321676574,98.86987602956269,2019-06-03,1559534400,1.0,1
2019-06-04,1559620800,98.86987602956269,102.25869578430272,2019-06-04,1559620800,1.0,0
2019-06-04,1559620800,98.86987602956269,102.25869578430272,2019-06-05,1559707200,1.0,0
2019-06-04,1559620800,98.86987602956269,102.25869578430272,2019-06-06,1559793600,1.0,0
2019-06-04,1559620800,98.86987602956269,102.25869578430272,2019-06-07,1559880000,1.0,0
2019-06-04,1559620800,98.86987602956269,102.25869578430272,2019-06-10,1560139200,1.0,1
2019-06-11,1560225600,102.25869578430272,105.61253487887025,2019-06-11,1560225600,1.0,0
2019-06-11,1560225600,102.25869578430272,105.61253487887025,2019-06-12,1560312000,1.0,0
2019-06-11,1560225600,102.25869578430272,105.61253487887025,2019-06-13,1560398400,1.0,0
2019-06-11,1560225600,102.25869578430272,105.61253487887025,2019-06-14,1560484800,1.0,1
2019-06-17,1560744000,99.1120510951122,102.25869578430272,2019-06-17,1560744000,-1.0,0
2019-06-17,1560744000,99.1120510951122,102.25869578430272,2019-06-18,1560830400,-1.0,1
2019-06-19,1560916800,102.25869578430272,105.30459860304353,2019-06-19,1560916800,1.0,0
2019-06-19,1560916800,102.25869578430272,105.30459860304353,2019-06-20,1561003200,1.0,0
2019-06-19,1560916800,102.25869578430272,105.30459860304353,2019-06-21,1561089600,1.0,0
2019-06-19,1560916800,102.25869578430272,105.30459860304353,2019-06-24,1561348800,1.0,0
2019-06-19,1560916800,102.25869578430272,105.30459860304353,2019-06-25,1561435200,1.0,0
2019-06-19,1560916800,102.25869578430272,105.30459860304353,2019-06-26,1561521600,1.0,0
2019-06-19,1560916800,102.25869578430272,105.30459860304353,2019-06-27,1561608000,1.0,0
2019-06-19,1560916800,102.25869578430272,105.30459860304353,2019-06-28,1561694400,1.0,1
2019-07-01,1561953600,105.30459860304353,108.10628845445368,2019-07-01,1561953600,1.0,1
2019-07-02,1562040000,102.5204580267341,105.30459860304353,2019-07-02,1562040000,-1.0,1
2019-07-03,1562126400,105.30459860304353,108.037729138188,2019-07-03,1562126400,1.0,1
2019-07-05,1562299200,102.53526310612367,105.30459860304353,2019-07-05,1562299200,-1.0,0
2019-07-05,1562299200,102.53526310612367,105.30459860304353,2019-07-08,1562558400,-1.0,0
2019-07-05,1562299200,102.53526310612367,105.30459860304353,2019-07-09,1562644800,-1.0,0
2019-07-05,1562299200,102.53526310612367,105.30459860304353,2019-07-10,1562731200,-1.0,0
2019-07-05,1562299200,102.53526310612367,105.30459860304353,2019-07-11,1562817600,-1.0,0
2019-07-05,1562299200,102.53526310612367,105.30459860304353,2019-07-12,1562904000,-1.0,0
2019-07-05,1562299200,102.53526310612367,105.30459860304353,2019-07-15,1563163200,-1.0,0
2019-07-05,1562299200,102.53526310612367,105.30459860304353,2019-07-16,1563249600,-1.0,0
2019-07-05,1562299200,102.53526310612367,105.30459860304353,2019-07-17,1563336000,-1.0,0
2019-07-05,1562299200,102.53526310612367,105.30459860304353,2019-07-18,1563422400,-1.0,0
2019-07-05,1562299200,102.53526310612367,105.30459860304353,2019-07-19,1563508800,-1.0,0
2019-07-05,1562299200,102.53526310612367,105.30459860304353,2019-07-22,1563768000,-1.0,1
2019-07-23,1563854400,105.30459860304353,108.2623813914934,2019-07-23,1563854400,1.0,1
2019-07-24,1563940800,102.3639431566258,105.30459860304353,2019-07-24,1563940800,-1.0,0
2019-07-24,1563940800,102.3639431566258,105.30459860304353,2019-07-25,1564027200,-1.0,0
2019-07-24,1563940800,102.3639431566258,105.30459860304353,2019-07-26,1564113600,-1.0,0
2019-07-24,1563940800,102.3639431566258,105.30459860304353,2019-07-29,1564372800,-1.0,1
2019-07-30,1564459200,105.30459860304353,108.15187489951211,2019-07-30,1564459200,1.0,1
2019-07-31,1564545600,102.32641347060843,105.30459860304353,2019-07-31,1564545600,-1.0,0
2019-07-31,1564545600,102.32641347060843,105.30459860304353,2019-08-01,1564632000,-1.0,1
2019-08-02,1564718400,99.04060077988632,102.32641347060843,2019-08-02,1564718400,-1.0,1
2019-08-05,1564977600,95.47906042421579,99.04060077988632,2019-08-05,1564977600,-1.0,0
2019-08-05,1564977600,95.47906042421579,99.04060077988632,2019-08-06,1565064000,-1.0,1
2019-08-07,1565150400,99.04060077988632,102.74877588247978,2019-08-07,1565150400,1.0,1
2019-08-08,1565236800,102.74877588247978,106.63822419203085,2019-08-08,1565236800,1.0,0
2019-08-08,1565236800,102.74877588247978,106.63822419203085,2019-08-09,1565323200,1.0,1
2019-08-12,1565582400,98.88450667679543,102.74877588247978,2019-08-12,1565582400,-1.0,0
2019-08-12,1565582400,98.88450667679543,102.74877588247978,2019-08-13,1565668800,-1.0,1
2019-08-14,1565755200,94.85992761679208,98.88450667679543,2019-08-14,1565755200,-1.0,0
2019-08-14,1565755200,94.85992761679208,98.88450667679543,2019-08-15,1565841600,-1.0,0
2019-08-14,1565755200,94.85992761679208,98.88450667679543,2019-08-16,1565928000,-1.0,1
2019-08-19,1566187200,98.88450667679543,102.7675883804497,2019-08-19,1566187200,1.0,1
2019-08-20,1566273600,95.06793080911646,98.88450667679543,2019-08-20,1566273600,-1.0,0
2019-08-20,1566273600,95.06793080911646,98.88450667679543,2019-08-21,1566360000,-1.0,0
2019-08-20,1566273600,95.06793080911646,98.88450667679543,2019-08-22,1566446400,-1.0,0
2019-08-20,1566273600,95.06793080911646,98.88450667679543,2019-08-23,1566532800,-1.0,0
2019-08-20,1566273600,95.06793080911646,98.88450667679543,2019-08-26,1566792000,-1.0,0
2019-08-20,1566273600,95.06793080911646,98.88450667679543,2019-08-27,1566878400,-1.0,0
2019-08-20,1566273600,95.06793080911646,98.88450667679543,2019-08-28,1566964800,-1.0,0
2019-08-20,1566273600,95.06793080911646,98.88450667679543,2019-08-29,1567051200,-1.0,1
2019-08-30,1567137600,98.88450667679543,102.45249396669777,2019-08-30,1567137600,1.0,1
2019-09-03,1567483200,95.36051847902897,98.88450667679543,2019-09-03,1567483200,-1.0,1
2019-09-04,1567569600,98.88450667679543,102.32521000329285,2019-09-04,1567569600,1.0,0
2019-09-04,1567569600,98.88450667679543,102.32521000329285,2019-09-05,1567656000,1.0,1
2019-09-06,1567742400,102.32521000329285,105.89493889195646,2019-09-06,1567742400,1.0,0
2019-09-06,1567742400,102.32521000329285,105.89493889195646,2019-09-09,1568001600,1.0,0
2019-09-06,1567742400,102.32521000329285,105.89493889195646,2019-09-10,1568088000,1.0,0
2019-09-06,1567742400,102.32521000329285,105.89493889195646,2019-09-11,1568174400,1.0,0
2019-09-06,1567742400,102.32521000329285,105.89493889195646,2019-09-12,1568260800,1.0,1
2019-09-13,1568347200,105.89493889195646,109.12826376079566,2019-09-13,1568347200,1.0,1
2019-09-16,1568606400,102.3872800851772,105.89493889195646,2019-09-16,1568606400,-1.0,0
2019-09-16,1568606400,102.3872800851772,105.89493889195646,2019-09-17,1568692800,-1.0,1
2019-09-18,1568779200,105.89493889195646,109.51275694474062,2019-09-18,1568779200,1.0,0
2019-09-18,1568779200,105.89493889195646,109.51275694474062,2019-09-19,1568865600,1.0,0
2019-09-18,1568779200,105.89493889195646,109.51275694474062,2019-09-20,1568952000,1.0,1
2019-09-23,1569211200,102.4631392338053,105.89493889195646,2019-09-23,1569211200,-1.0,0
2019-09-23,1569211200,102.4631392338053,105.89493889195646,2019-09-24,1569297600,-1.0,0
2019-09-23,1569211200,102.4631392338053,105.89493889195646,2019-09-25,1569384000,-1.0,0
2019-09-23,1569211200,102.4631392338053,105.89493889195646,2019-09-26,1569470400,-1.0,0
2019-09-23,1569211200,102.4631392338053,105.89493889195646,2019-09-27,1569556800,-1.0,0
2019-09-23,1569211200,102.4631392338053,105.89493889195646,2019-09-30,1569816000,-1.0,0
2019-09-23,1569211200,102.4631392338053,105.89493889195646,2019-10-01,1569902400,-1.0,1
2019-10-02,1569988800,98.87094526349489,102.4631392338053,2019-10-02,1569988800,-1.0,0
2019-10-02,1569988800,98.87094526349489,102.4631392338053,2019-10-03,1570075200,-1.0,1
2019-10-04,1570161600,102.4631392338053,106.10113301432804,2019-10-04,1570161600,1.0,0
2019-10-04,1570161600,102.4631392338053,106.10113301432804,2019-10-07,1570420800,1.0,1
2019-10-08,1570507200,98.8030119434566,102.4631392338053,2019-10-08,1570507200,-1.0,0
2019-10-08,1570507200,98.8030119434566,102.4631392338053,2019-10-09,1570593600,-1.0,1
2019-10-10,1570680000,102.4631392338053,106.08697347905493,2019-10-10,1570680000,1.0,1
2019-10-11,1570766400,106.08697347905493,109.93539099250103,2019-10-11,1570766400,1.0,1
2019-10-14,1571025600,102.21387150228355,106.08697347905493,2019-10-14,1571025600,-1.0,0
2019-10-14,1571025600,102.21387150228355,106.08697347905493,2019-10-15,1571112000,-1.0,1
2019-10-16,1571198400,106.08697347905493,109.85871957127107,2019-10-16,1571198400,1.0,0
2019-10-16,1571198400,106.08697347905493,109.85871957127107,2019-10-17,1571284800,1.0,1
2019-10-18,1571371200,109.85871957127107,113.79993941609008,2019-10-18,1571371200,1.0,0
2019-10-18,1571371200,109.85871957127107,113.79993941609008,2019-10-21,1571630400,1.0,0
2019-10-18,1571371200,109.85871957127107,113.79993941609008,2019-10-22,1571716800,1.0,0
2019-10-18,1571371200,109.85871957127107,113.79993941609008,2019-10-23,1571803200,1.0,0
2019-10-18,1571371200,109.85871957127107,113.79993941609008,2019-10-24,1571889600,1.0,0
2019-10-18,1571371200,109.85871957127107,113.79993941609008,2019-10-25,1571976000,1.0,0
2019-10-18,1571371200,109.85871957127107,113.79993941609008,2019-10-28,1572235200,1.0,0
2019-10-18,1571371200,109.85871957127107,113.79993941609008,2019-10-29,1572321600,1.0,0
2019-10-18,1571371200,109.85871957127107,113.79993941609008,2019-10-30,1572408000,1.0,0
2019-10-18,1571371200,109.85871957127107,113.79993941609008,2019-10-31,1572494400,1.0,0
2019-10-18,1571371200,109.85871957127107,113.79993941609008,2019-11-01,1572580800,1.0,1
2019-11-04,1572843600,113.79993941609008,117.24146328067368,2019-11-04,1572843600,1.0,0
2019-11-04,1572843600,113.79993941609008,117.24146328067368,2019-11-05,1572930000,1.0,0
2019-11-04,1572843600,113.79993941609008,117.24146328067368,2019-11-06,1573016400,1.0,0
2019-11-04,1572843600,113.79993941609008,117.24146328067368,2019-11-07,1573102800,1.0,0
2019-11-04,1572843600,113.79993941609008,117.24146328067368,2019-11-08,1573189200,1.0,0
2019-11-04,1572843600,113.79993941609008,117.24146328067368,2019-11-11,1573448400,1.0,0
2019-11-04,1572843600,113.79993941609008,117.24146328067368,2019-11-12,1573534800,1.0,0
2019-11-04,1572843600,113.79993941609008,117.24146328067368,2019-11-13,1573621200,1.0,0
2019-11-04,1572843600,113.79993941609008,117.24146328067368,2019-11-14,1573707600,1.0,0
2019-11-04,1572843600,113.79993941609008,117.24146328067368,2019-11-15,1573794000,1.0,0
2019-11-04,1572843600,113.79993941609008,117.24146328067368,2019-11-18,1574053200,1.0,0
2019-11-04,1572843600,113.79993941609008,117.24146328067368,2019-11-19,1574139600,1.0,1
2019-11-20,1574226000,110.8353725222629,113.79993941609008,2019-11-20,1574226000,-1.0,0
2019-11-20,1574226000,110.8353725222629,113.79993941609008,2019-11-21,1574312400,-1.0,0
2019-11-20,1574226000,110.8353725222629,113.79993941609008,2019-11-22,1574398800,-1.0,1
2019-11-25,1574658000,113.79993941609008,116.68763965870609,2019-11-25,1574658000,1.0,0
2019-11-25,1574658000,113.79993941609008,116.68763965870609,2019-11-26,1574744400,1.0,0
2019-11-25,1574658000,113.79993941609008,116.68763965870609,2019-11-27,1574830800,1.0,0
2019-11-25,1574658000,113.79993941609008,116.68763965870609,2019-11-29,1575003600,1.0,0
2019-11-25,1574658000,113.79993941609008,116.68763965870609,2019-12-02,1575262800,1.0,0
2019-11-25,1574658000,113.79993941609008,116.68763965870609,2019-12-03,1575349200,1.0,0
2019-11-25,1574658000,113.79993941609008,116.68763965870609,2019-12-04,1575435600,1.0,1
2019-12-05,1575522000,116.68763965870609,119.61919470917377,2019-12-05,1575522000,1.0,0
2019-12-05,1575522000,116.68763965870609,119.61919470917377,2019-12-06,1575608400,1.0,0
2019-12-05,1575522000,116.68763965870609,119.61919470917377,2019-12-09,1575867600,1.0,0
2019-12-05,1575522000,116.68763965870609,119.61919470917377,2019-12-10,1575954000,1.0,0
2019-12-05,1575522000,116.68763965870609,119.61919470917377,2019-12-11,1576040400,1.0,1
2019-12-12,1576126800,119.61919470917377,122.55119127190302,2019-12-12,1576126800,1.0,1
2019-12-13,1576213200,116.7384836152109,119.61919470917377,2019-12-13,1576213200,-1.0,0
2019-12-13,1576213200,116.7384836152109,119.61919470917377,2019-12-16,1576472400,-1.0,0
2019-12-13,1576213200,116.7384836152109,119.61919470917377,2019-12-17,1576558800,-1.0,0
2019-12-13,1576213200,116.7384836152109,119.61919470917377,2019-12-18,1576645200,-1.0,0
2019-12-13,1576213200,116.7384836152109,119.61919470917377,2019-12-19,1576731600,-1.0,0
2019-12-13,1576213200,116.7384836152109,119.61919470917377,2019-12-20,1576818000,-1.0,0
2019-12-13,1576213200,116.7384836152109,119.61919470917377,2019-12-23,1577077200,-1.0,1
2019-12-24,1577163600,119.61919470917377,122.31133781222077,2019-12-24,1577163600,1.0,1
2019-12-26,1577336400,117.01520468491583,119.61919470917377,2019-12-26,1577336400,-1.0,0
2019-12-26,1577336400,117.01520468491583,119.61919470917377,2019-12-27,1577422800,-1.0,0
2019-12-26,1577336400,117.01520468491583,119.61919470917377,2019-12-30,1577682000,-1.0,1
2019-12-31,1577768400,119.61919470917377,121.98459707189049,2019-12-31,1577768400,1.0,1
2020-01-02,1577941200,117.09746394379395,119.61919470917377,2020-01-02,1577941200,-1.0,1
2020-01-03,1578027600,114.529571090227,117.09746394379395,2020-01-03,1578027600,-1.0,0
2020-01-03,1578027600,114.529571090227,117.09746394379395,2020-01-06,1578286800,-1.0,0
2020-01-03,1578027600,114.529571090227,117.09746394379395,2020-01-07,1578373200,-1.0,0
2020-01-03,1578027600,114.529571090227,117.09746394379395,2020-01-08,1578459600,-1.0,0
2020-01-03,1578027600,114.529571090227,117.09746394379395,2020-01-09,1578546000,-1.0,0
2020-01-03,1578027600,114.529571090227,117.09746394379395,2020-01-10,1578632400,-1.0,0
2020-01-03,1578027600,114.529571090227,117.09746394379395,2020-01-13,1578891600,-1.0,0
2020-01-03,1578027600,114.529571090227,117.09746394379395,2020-01-14,1578978000,-1.0,1
2020-01-15,1579064400,117.09746394379395,119.69630398458426,2020-01-15,1579064400,1.0,1
2020-01-16,1579150800,114.06711247734582,117.09746394379395,2020-01-16,1579150800,-1.0,0
2020-01-16,1579150800,114.06711247734582,117.09746394379395,2020-01-17,1579237200,-1.0,1
2020-01-21,1579582800,110.81860534556145,114.06711247734582,2020-01-21,1579582800,-1.0,0
2020-01-21,1579582800,110.81860534556145,114.06711247734582,2020-01-22,1579669200,-1.0,0
2020-01-21,1579582800,110.81860534556145,114.06711247734582,2020-01-23,1579755600,-1.0,0
2020-01-21,1579582800,110.81860534556145,114.06711247734582,2020-01-24,1579842000,-1.0,1
2020-01-27,1580101200,107.59788662963857,110.81860534556145,2020-01-27,1580101200,-1.0,1
2020-01-28,1580187600,110.81860534556145,113.9892727246327,2020-01-28,1580187600,1.0,1
2020-01-29,1580274000,107.68412849356672,110.81860534556145,2020-01-29,1580274000,-1.0,0
2020-01-29,1580274000,107.68412849356672,110.81860534556145,2020-01-30,1580360400,-1.0,1
2020-01-31,1580446800,104.28192141199983,107.68412849356672,2020-01-31,1580446800,-1.0,1
2020-02-03,1580706000,107.68412849356672,111.09789221216454,2020-02-03,1580706000,1.0,0
2020-02-03,1580706000,107.68412849356672,111.09789221216454,2020-02-04,1580792400,1.0,1
2020-02-05,1580878800,111.09789221216454,114.6201476634045,2020-02-05,1580878800,1.0,0
2020-02-05,1580878800,111.09789221216454,114.6201476634045,2020-02-06,1580965200,1.0,1
2020-02-07,1581051600,107.62462093022805,111.09789221216454,2020-02-07,1581051600,-1.0,0
2020-02-07,1581051600,107.62462093022805,111.09789221216454,2020-02-10,1581310800,-1.0,0
2020-02-07,1581051600,107.62462093022805,111.09789221216454,2020-02-11,1581397200,-1.0,0
2020-02-07,1581051600,107.62462093022805,111.09789221216454,2020-02-12,1581483600,-1.0,0
2020-02-07,1581051600,107.62462093022805,111.09789221216454,2020-02-13,1581570000,-1.0,0
2020-02-07,1581051600,107.62462093022805,111.09789221216454,2020-02-14,1581656400,-1.0,1
2020-02-18,1582002000,104.39974907237485,107.62462093022805,2020-02-18,1582002000,-1.0,0
2020-02-18,1582002000,104.39974907237485,107.62462093022805,2020-02-19,1582088400,-1.0,0
2020-02-18,1582002000,104.39974907237485,107.62462093022805,2020-02-20,1582174800,-1.0,0
2020-02-18,1582002000,104.39974907237485,107.62462093022805,2020-02-21,1582261200,-1.0,1
2020-02-24,1582520400,101.15330933028443,104.39974907237485,2020-02-24,1582520400,-1.0,1
2020-02-25,1582606800,97.41875814120047,101.15330933028443,2020-02-25,1582606800,-1.0,0
2020-02-25,1582606800,97.41875814120047,101.15330933028443,2020-02-26,1582693200,-1.0,1
2020-02-27,1582779600,93.27037471795971,97.41875814120047,2020-02-27,1582779600,-1.0,0
2020-02-27,1582779600,93.27037471795971,97.41875814120047,2020-02-28,1582866000,-1.0,0
2020-02-27,1582779600,93.27037471795971,97.41875814120047,2020-03-02,1583125200,-1.0,0
2020-02-27,1582779600,93.27037471795971,97.41875814120047,2020-03-03,1583211600,-1.0,0
2020-02-27,1582779600,93.27037471795971,97.41875814120047,2020-03-04,1583298000,-1.0,1
2020-03-05,1583384400,88.2277086703952,93.27037471795971,2020-03-05,1583384400,-1.0,0
2020-03-05,1583384400,88.2277086703952,93.27037471795971,2020-03-06,1583470800,-1.0,1
2020-03-09,1583726400,82.65679763958703,88.2277086703952,2020-03-09,1583726400,-1.0,1
2020-03-10,1583812800,88.2277086703952,94.10141177043135,2020-03-10,1583812800,1.0,1
2020-03-11,1583899200,81.9905557917902,88.2277086703952,2020-03-11,1583899200,-1.0,1
2020-03-12,1583985600,74.98005669022841,81.9905557917902,2020-03-12,1583985600,-1.0,1
2020-03-13,1584072000,81.9905557917902,89.12901924324044,2020-03-13,1584072000,1.0,1
2020-03-16,1584331200,73.85898258687213,81.9905557917902,2020-03-16,1584331200,-1.0,0
2020-03-16,1584331200,73.85898258687213,81.9905557917902,2020-03-17,1584417600,-1.0,1
2020-03-18,1584504000,64.9156056907948,73.85898258687213,2020-03-18,1584504000,-1.0,0
2020-03-18,1584504000,64.9156056907948,73.85898258687213,2020-03-19,1584590400,-1.0,0
2020-03-18,1584504000,64.9156056907948,73.85898258687213,2020-03-20,1584676800,-1.0,0
2020-03-18,1584504000,64.9156056907948,73.85898258687213,2020-03-23,1584936000,-1.0,0
2020-03-18,1584504000,64.9156056907948,73.85898258687213,2020-03-24,1585022400,-1.0,1
2020-03-25,1585108800,73.85898258687213,84.94094238761593,2020-03-25,1585108800,1.0,0
2020-03-25,1585108800,73.85898258687213,84.94094238761593,2020-03-26,1585195200,1.0,0
2020-03-25,1585108800,73.85898258687213,84.94094238761593,2020-03-27,1585281600,1.0,0
2020-03-25,1585108800,73.85898258687213,84.94094238761593,2020-03-30,1585540800,1.0,0
2020-03-25,1585108800,73.85898258687213,84.94094238761593,2020-03-31,1585627200,1.0,1
2020-04-01,1585713600,63.99756755463562,73.85898258687213,2020-04-01,1585713600,-1.0,0
2020-04-01,1585713600,63.99756755463562,73.85898258687213,2020-04-02,1585800000,-1.0,0
2020-04-01,1585713600,63.99756755463562,73.85898258687213,2020-04-03,1585886400,-1.0,1
2020-04-06,1586145600,73.85898258687213,83.18785315021893,2020-04-06,1586145600,1.0,0
2020-04-06,1586145600,73.85898258687213,83.18785315021893,2020-04-07,1586232000,1.0,1
2020-04-08,1586318400,83.18785315021893,92.2952772584108,2020-04-08,1586318400,1.0,0
2020-04-08,1586318400,83.18785315021893,92.2952772584108,2020-04-09,1586404800,1.0,0
2020-04-08,1586318400,83.18785315021893,92.2952772584108,2020-04-13,1586750400,1.0,0
2020-04-08,1586318400,83.18785315021893,92.2952772584108,2020-04-14,1586836800,1.0,1
2020-04-15,1586923200,74.52665984654159,83.18785315021893,2020-04-15,1586923200,-1.0,0
2020-04-15,1586923200,74.52665984654159,83.18785315021893,2020-04-16,1587009600,-1.0,1
2020-04-17,1587096000,83.18785315021893,91.5912800294101,2020-04-17,1587096000,1.0,1
2020-04-20,1587355200,75.02209961954141,83.18785315021893,2020-04-20,1587355200,-1.0,0
2020-04-20,1587355200,75.02209961954141,83.18785315021893,2020-04-21,1587441600,-1.0,0
2020-04-20,1587355200,75.02209961954141,83.18785315021893,2020-04-22,1587528000,-1.0,0
2020-04-20,1587355200,75.02209961954141,83.18785315021893,2020-04-23,1587614400,-1.0,1
2020-04-24,1587700800,83.18785315021893,90.55590762204527,2020-04-24,1587700800,1.0,0
2020-04-24,1587700800,83.18785315021893,90.55590762204527,2020-04-27,1587960000,1.0,1
2020-04-28,1588046400,75.47330618216458,83.18785315021893,2020-04-28,1588046400,-1.0,1
2020-04-29,1588132800,83.18785315021893,91.0327896205551,2020-04-29,1588132800,1.0,1
2020-04-30,1588219200,75.28355499919248,83.18785315021893,2020-04-30,1588219200,-1.0,0
2020-04-30,1588219200,75.28355499919248,83.18785315021893,2020-05-01,1588305600,-1.0,0
2020-04-30,1588219200,75.28355499919248,83.18785315021893,2020-05-04,1588564800,-1.0,0
2020-04-30,1588219200,75.28355499919248,83.18785315021893,2020-05-05,1588651200,-1.0,0
2020-04-30,1588219200,75.28355499919248,83.18785315021893,2020-05-06,1588737600,-1.0,0
2020-04-30,1588219200,75.28355499919248,83.18785315021893,2020-05-07,1588824000,-1.0,1
2020-05-08,1588910400,83.18785315021893,89.98574632558297,2020-05-08,1588910400,1.0,1
2020-05-11,1589169600,76.60038091595233,83.18785315021893,2020-05-11,1589169600,-1.0,0
2020-05-11,1589169600,76.60038091595233,83.18785315021893,2020-05-12,1589256000,-1.0,1
2020-05-13,1589342400,70.0212849588551,76.60038091595233,2020-05-13,1589342400,-1.0,1
2020-05-14,1589428800,76.60038091595233,83.24439859039975,2020-05-14,1589428800,1.0,0
2020-05-14,1589428800,76.60038091595233,83.24439859039975,2020-05-15,1589515200,1.0,0
2020-05-14,1589428800,76.60038091595233,83.24439859039975,2020-05-18,1589774400,1.0,1
2020-05-19,1589860800,83.24439859039975,89.85896084650798,2020-05-19,1589860800,1.0,0
2020-05-19,1589860800,83.24439859039975,89.85896084650798,2020-05-20,1589947200,1.0,0
2020-05-19,1589860800,83.24439859039975,89.85896084650798,2020-05-21,1590033600,1.0,0
2020-05-19,1589860800,83.24439859039975,89.85896084650798,2020-05-22,1590120000,1.0,1
2020-05-26,1590465600,89.85896084650798,96.03789797157845,2020-05-26,1590465600,1.0,0
2020-05-26,1590465600,89.85896084650798,96.03789797157845,2020-05-27,1590552000,1.0,0
2020-05-26,1590465600,89.85896084650798,96.03789797157845,2020-05-28,1590638400,1.0,0
2020-05-26,1590465600,89.85896084650798,96.03789797157845,2020-05-29,1590724800,1.0,0
2020-05-26,1590465600,89.85896084650798,96.03789797157845,2020-06-01,1590984000,1.0,1
2020-06-02,1591070400,96.03789797157845,101.88521248334956,2020-06-02,1591070400,1.0,0
2020-06-02,1591070400,96.03789797157845,101.88521248334956,2020-06-03,1591156800,1.0,0
2020-06-02,1591070400,96.03789797157845,101.88521248334956,2020-06-04,1591243200,1.0,1
2020-06-05,1591329600,101.88521248334956,107.95086626700888,2020-06-05,1591329600,1.0,0
2020-06-05,1591329600,101.88521248334956,107.95086626700888,2020-06-08,1591588800,1.0,1
2020-06-09,1591675200,95.82345998621474,101.88521248334956,2020-06-09,1591675200,-1.0,0
2020-06-09,1591675200,95.82345998621474,101.88521248334956,2020-06-10,1591761600,-1.0,1
2020-06-11,1591848000,89.10706114939953,95.82345998621474,2020-06-11,1591848000,-1.0,0
2020-06-11,1591848000,89.10706114939953,95.82345998621474,2020-06-12,1591934400,-1.0,0
2020-06-11,1591848000,89.10706114939953,95.82345998621474,2020-06-15,1592193600,-1.0,0
2020-06-11,1591848000,89.10706114939953,95.82345998621474,2020-06-16,1592280000,-1.0,0
2020-06-11,1591848000,89.10706114939953,95.82345998621474,2020-06-17,1592366400,-1.0,0
2020-06-11,1591848000,89.10706114939953,95.82345998621474,2020-06-18,1592452800,-1.0,0
2020-06-11,1591848000,89.10706114939953,95.82345998621474,2020-06-19,1592539200,-1.0,0
2020-06-11,1591848000,89.10706114939953,95.82345998621474,2020-06-22,1592798400,-1.0,0
2020-06-11,1591848000,89.10706114939953,95.82345998621474,2020-06-23,1592884800,-1.0,0
2020-06-11,1591848000,89.10706114939953,95.82345998621474,2020-06-24,1592971200,-1.0,0
2020-06-11,1591848000,89.10706114939953,95.82345998621474,2020-06-25,1593057600,-1.0,0
2020-06-11,1591848000,89.10706114939953,95.82345998621474,2020-06-26,1593144000,-1.0,0
2020-06-11,1591848000,89.10706114939953,95.82345998621474,2020-06-29,1593403200,-1.0,1
2020-06-30,1593489600,95.82345998621474,101.45942708369901,2020-06-30,1593489600,1.0,0
2020-06-30,1593489600,95.82345998621474,101.45942708369901,2020-07-01,1593576000,1.0,0
2020-06-30,1593489600,95.82345998621474,101.45942708369901,2020-07-02,1593662400,1.0,0
2020-06-30,1593489600,95.82345998621474,101.45942708369901,2020-07-06,1594008000,1.0,0
2020-06-30,1593489600,95.82345998621474,101.45942708369901,2020-07-07,1594094400,1.0,0
2020-06-30,1593489600,95.82345998621474,101.45942708369901,2020-07-08,1594180800,1.0,1
2020-07-09,1594267200,90.35125881819576,95.82345998621474,2020-07-09,1594267200,-1.0,1
2020-07-10,1594353600,95.82345998621474,101.16450392794665,2020-07-10,1594353600,1.0,0
2020-07-10,1594353600,95.82345998621474,101.16450392794665,2020-07-13,1594612800,1.0,0
2020-07-10,1594353600,95.82345998621474,101.16450392794665,2020-07-14,1594699200,1.0,1
2020-07-15,1594785600,101.16450392794665,106.78344982444266,2020-07-15,1594785600,1.0,0
2020-07-15,1594785600,101.16450392794665,106.78344982444266,2020-07-16,1594872000,1.0,0
2020-07-15,1594785600,101.16450392794665,106.78344982444266,2020-07-17,1594958400,1.0,1
2020-07-20,1595217600,95.05415621125508,101.16450392794665,2020-07-20,1595217600,-1.0,0
2020-07-20,1595217600,95.05415621125508,101.16450392794665,2020-07-21,1595304000,-1.0,0
2020-07-20,1595217600,95.05415621125508,101.16450392794665,2020-07-22,1595390400,-1.0,0
2020-07-20,1595217600,95.05415621125508,101.16450392794665,2020-07-23,1595476800,-1.0,0
2020-07-20,1595217600,95.05415621125508,101.16450392794665,2020-07-24,1595563200,-1.0,0
2020-07-20,1595217600,95.05415621125508,101.16450392794665,2020-07-27,1595822400,-1.0,0
2020-07-20,1595217600,95.05415621125508,101.16450392794665,2020-07-28,1595908800,-1.0,0
2020-07-20,1595217600,95.05415621125508,101.16450392794665,2020-07-29,1595995200,-1.0,0
2020-07-20,1595217600,95.05415621125508,101.16450392794665,2020-07-30,1596081600,-1.0,0
2020-07-20,1595217600,95.05415621125508,101.16450392794665,2020-07-31,1596168000,-1.0,0
2020-07-20,1595217600,95.05415621125508,101.16450392794665,2020-08-03,1596427200,-1.0,0
2020-07-20,1595217600,95.05415621125508,101.16450392794665,2020-08-04,1596513600,-1.0,0
2020-07-20,1595217600,95.05415621125508,101.16450392794665,2020-08-05,1596600000,-1.0,0
2020-07-20,1595217600,95.05415621125508,101.16450392794665,2020-08-06,1596686400,-1.0,1
2020-08-07,1596772800,101.16450392794665,105.91891177463495,2020-08-07,1596772800,1.0,0
2020-08-07,1596772800,101.16450392794665,105.91891177463495,2020-08-10,1597032000,1.0,1
2020-08-11,1597118400,105.91891177463495,111.19902874448353,2020-08-11,1597118400,1.0,0
2020-08-11,1597118400,105.91891177463495,111.19902874448353,2020-08-12,1597204800,1.0,0
2020-08-11,1597118400,105.91891177463495,111.19902874448353,2020-08-13,1597291200,1.0,0
2020-08-11,1597118400,105.91891177463495,111.19902874448353,2020-08-14,1597377600,1.0,0
2020-08-11,1597118400,105.91891177463495,111.19902874448353,2020-08-17,1597636800,1.0,0
2020-08-11,1597118400,105.91891177463495,111.19902874448353,2020-08-18,1597723200,1.0,0
2020-08-11,1597118400,105.91891177463495,111.19902874448353,2020-08-19,1597809600,1.0,0
2020-08-11,1597118400,105.91891177463495,111.19902874448353,2020-08-20,1597896000,1.0,0
2020-08-11,1597118400,105.91891177463495,111.19902874448353,2020-08-21,1597982400,1.0,0
2020-08-11,1597118400,105.91891177463495,111.19902874448353,2020-08-24,1598241600,1.0,0
2020-08-11,1597118400,105.91891177463495,111.19902874448353,2020-08-25,1598328000,1.0,0
2020-08-11,1597118400,105.91891177463495,111.19902874448353,2020-08-26,1598414400,1.0,0
2020-08-11,1597118400,105.91891177463495,111.19902874448353,2020-08-27,1598500800,1.0,0
2020-08-11,1597118400,105.91891177463495,111.19902874448353,2020-08-28,1598587200,1.0,0
2020-08-11,1597118400,105.91891177463495,111.19902874448353,2020-08-31,1598846400,1.0,1
2020-09-01,1598932800,111.19902874448353,115.40091245829157,2020-09-01,1598932800,1.0,0
2020-09-01,1598932800,111.19902874448353,115.40091245829157,2020-09-02,1599019200,1.0,0
2020-09-01,1598932800,111.19902874448353,115.40091245829157,2020-09-03,1599105600,1.0,0
2020-09-01,1598932800,111.19902874448353,115.40091245829157,2020-09-04,1599192000,1.0,1
2020-09-08,1599537600,106.63947812104351,111.19902874448353,2020-09-08,1599537600,-1.0,1
2020-09-09,1599624000,111.19902874448353,116.02689718053497,2020-09-09,1599624000,1.0,0
2020-09-09,1599624000,111.19902874448353,116.02689718053497,2020-09-10,1599710400,1.0,0
2020-09-09,1599624000,111.19902874448353,116.02689718053497,2020-09-11,1599796800,1.0,1
2020-09-14,1600056000,116.02689718053497,120.835659918875,2020-09-14,1600056000,1.0,0
2020-09-14,1600056000,116.02689718053497,120.835659918875,2020-09-15,1600142400,1.0,0
2020-09-14,1600056000,116.02689718053497,120.835659918875,2020-09-16,1600228800,1.0,0
2020-09-14,1600056000,116.02689718053497,120.835659918875,2020-09-17,1600315200,1.0,1
2020-09-18,1600401600,111.27264825899891,116.02689718053497,2020-09-18,1600401600,-1.0,1
2020-09-21,1600660800,106.04284568900114,111.27264825899891,2020-09-21,1600660800,-1.0,0
2020-09-21,1600660800,106.04284568900114,111.27264825899891,2020-09-22,1600747200,-1.0,0
2020-09-21,1600660800,106.04284568900114,111.27264825899891,2020-09-23,1600833600,-1.0,0
2020-09-21,1600660800,106.04284568900114,111.27264825899891,2020-09-24,1600920000,-1.0,0
2020-09-21,1600660800,106.04284568900114,111.27264825899891,2020-09-25,1601006400,-1.0,0
2020-09-21,1600660800,106.04284568900114,111.27264825899891,2020-09-28,1601265600,-1.0,0
2020-09-21,1600660800,106.04284568900114,111.27264825899891,2020-09-29,1601352000,-1.0,0
2020-09-21,1600660800,106.04284568900114,111.27264825899891,2020-09-30,1601438400,-1.0,0
2020-09-21,1600660800,106.04284568900114,111.27264825899891,2020-10-01,1601524800,-1.0,1
2020-10-02,1601611200,111.27264825899891,116.39346137392619,2020-10-02,1601611200,1.0,0
2020-10-02,1601611200,111.27264825899891,116.39346137392619,2020-10-05,1601870400,1.0,0
2020-10-02,1601611200,111.27264825899891,116.39346137392619,2020-10-06,1601956800,1.0,1
2020-10-07,1602043200,116.39346137392619,121.92483178700753,2020-10-07,1602043200,1.0,1
2020-10-08,1602129600,121.92483178700753,127.94567574201164,2020-10-08,1602129600,1.0,0
2020-10-08,1602129600,121.92483178700753,127.94567574201164,2020-10-09,1602216000,1.0,0
2020-10-08,1602129600,121.92483178700753,127.94567574201164,2020-10-12,1602475200,1.0,1
2020-10-13,1602561600,116.12476175452065,121.92483178700753,2020-10-13,1602561600,-1.0,1
2020-10-14,1602648000,121.92483178700753,127.56132538860251,2020-10-14,1602648000,1.0,0
2020-10-14,1602648000,121.92483178700753,127.56132538860251,2020-10-15,1602734400,1.0,0
2020-10-14,1602648000,121.92483178700753,127.56132538860251,2020-10-16,1602820800,1.0,0
2020-10-14,1602648000,121.92483178700753,127.56132538860251,2020-10-19,1603080000,1.0,0
2020-10-14,1602648000,121.92483178700753,127.56132538860251,2020-10-20,1603166400,1.0,1
2020-10-21,1603252800,116.13597830182093,121.92483178700753,2020-10-21,1603252800,-1.0,0
2020-10-21,1603252800,116.13597830182093,121.92483178700753,2020-10-22,1603339200,-1.0,1
2020-10-23,1603425600,121.92483178700753,127.43438402678578,2020-10-23,1603425600,1.0,1
2020-10-26,1603684800,116.24567613578488,121.92483178700753,2020-10-26,1603684800,-1.0,1
2020-10-27,1603771200,110.45917445964955,116.24567613578488,2020-10-27,1603771200,-1.0,0
2020-10-27,1603771200,110.45917445964955,116.24567613578488,2020-10-28,1603857600,-1.0,1
2020-10-29,1603944000,116.24567613578488,122.25462911163626,2020-10-29,1603944000,1.0,0
2020-10-29,1603944000,116.24567613578488,122.25462911163626,2020-10-30,1604030400,1.0,1
2020-11-02,1604293200,122.25462911163626,128.50700183061016,2020-11-02,1604293200,1.0,0
2020-11-02,1604293200,122.25462911163626,128.50700183061016,2020-11-03,1604379600,1.0,1
2020-11-04,1604466000,115.82855263456183,122.25462911163626,2020-11-04,1604466000,-1.0,1
2020-11-05,1604552400,122.25462911163626,129.0188429832054,2020-11-05,1604552400,1.0,0
2020-11-05,1604552400,122.25462911163626,129.0188429832054,2020-11-06,1604638800,1.0,1
2020-11-09,1604898000,129.0188429832054,136.43313963777263,2020-11-09,1604898000,1.0,0
2020-11-09,1604898000,129.0188429832054,136.43313963777263,2020-11-10,1604984400,1.0,0
2020-11-09,1604898000,129.0188429832054,136.43313963777263,2020-11-11,1605070800,1.0,1
2020-11-12,1605157200,122.00474613550705,129.0188429832054,2020-11-12,1605157200,-1.0,1
2020-11-13,1605243600,129.0188429832054,135.92664719892528,2020-11-13,1605243600,1.0,0
2020-11-13,1605243600,129.0188429832054,135.92664719892528,2020-11-16,1605502800,1.0,0
2020-11-13,1605243600,129.0188429832054,135.92664719892528,2020-11-17,1605589200,1.0,0
2020-11-13,1605243600,129.0188429832054,135.92664719892528,2020-11-18,1605675600,1.0,0
2020-11-13,1605243600,129.0188429832054,135.92664719892528,2020-11-19,1605762000,1.0,0
2020-11-13,1605243600,129.0188429832054,135.92664719892528,2020-11-20,1605848400,1.0,0
2020-11-13,1605243600,129.0188429832054,135.92664719892528,2020-11-23,1606107600,1.0,0
2020-11-13,1605243600,129.0188429832054,135.92664719892528,2020-11-24,1606194000,1.0,0
2020-11-13,1605243600,129.0188429832054,135.92664719892528,2020-11-25,1606280400,1.0,0
2020-11-13,1605243600,129.0188429832054,135.92664719892528,2020-11-27,1606453200,1.0,0
2020-11-13,1605243600,129.0188429832054,135.92664719892528,2020-11-30,1606712400,1.0,1
2020-12-01,1606798800,135.92664719892528,141.50880472417558,2020-12-01,1606798800,1.0,1
2020-12-02,1606885200,130.45650092547857,135.92664719892528,2020-12-02,1606885200,-1.0,0
2020-12-02,1606885200,130.45650092547857,135.92664719892528,2020-12-03,1606971600,-1.0,0
2020-12-02,1606885200,130.45650092547857,135.92664719892528,2020-12-04,1607058000,-1.0,0
2020-12-02,1606885200,130.45650092547857,135.92664719892528,2020-12-07,1607317200,-1.0,0
2020-12-02,1606885200,130.45650092547857,135.92664719892528,2020-12-08,1607403600,-1.0,0
2020-12-02,1606885200,130.45650092547857,135.92664719892528,2020-12-09,1607490000,-1.0,0
2020-12-02,1606885200,130.45650092547857,135.92664719892528,2020-12-10,1607576400,-1.0,0
2020-12-02,1606885200,130.45650092547857,135.92664719892528,2020-12-11,1607662800,-1.0,1
2020-12-14,1607922000,125.68250448564174,130.45650092547857,2020-12-14,1607922000,-1.0,1
2020-12-15,1608008400,130.45650092547857,135.23278333389848,2020-12-15,1608008400,1.0,1
2020-12-16,1608094800,125.6510958319458,130.45650092547857,2020-12-16,1608094800,-1.0,1
2020-12-17,1608181200,130.45650092547857,135.15523422661613,2020-12-17,1608181200,1.0,0
2020-12-17,1608181200,130.45650092547857,135.15523422661613,2020-12-18,1608267600,1.0,0
2020-12-17,1608181200,130.45650092547857,135.15523422661613,2020-12-21,1608526800,1.0,0
2020-12-17,1608181200,130.45650092547857,135.15523422661613,2020-12-22,1608613200,1.0,0
2020-12-17,1608181200,130.45650092547857,135.15523422661613,2020-12-23,1608699600,1.0,0
2020-12-17,1608181200,130.45650092547857,135.15523422661613,2020-12-24,1608786000,1.0,0
2020-12-17,1608181200,130.45650092547857,135.15523422661613,2020-12-28,1609131600,1.0,1
2020-12-29,1609218000,125.6406974689983,130.45650092547857,2020-12-29,1609218000,-1.0,1
2020-12-30,1609304400,130.45650092547857,135.09931842078169,2020-12-30,1609304400,1.0,0
2020-12-30,1609304400,130.45650092547857,135.09931842078169,2020-12-31,1609390800,1.0,1
2021-01-04,1609736400,125.69000012595701,130.45650092547857,2021-01-04,1609736400,-1.0,1
2021-01-05,1609822800,130.45650092547857,135.28753738217716,2021-01-05,1609822800,1.0,1
2021-01-06,1609909200,135.28753738217716,140.41507123482586,2021-01-06,1609909200,1.0,0
2021-01-06,1609909200,135.28753738217716,140.41507123482586,2021-01-07,1609995600,1.0,0
2021-01-06,1609909200,135.28753738217716,140.41507123482586,2021-01-08,1610082000,1.0,0
2021-01-06,1609909200,135.28753738217716,140.41507123482586,2021-01-11,1610341200,1.0,0
2021-01-06,1609909200,135.28753738217716,140.41507123482586,2021-01-12,1610427600,1.0,0
2021-01-06,1609909200,135.28753738217716,140.41507123482586,2021-01-13,1610514000,1.0,0
2021-01-06,1609909200,135.28753738217716,140.41507123482586,2021-01-14,1610600400,1.0,1
2021-01-15,1610686800,129.8670163842887,135.28753738217716,2021-01-15,1610686800,-1.0,0
2021-01-15,1610686800,129.8670163842887,135.28753738217716,2021-01-19,1611032400,-1.0,0
2021-01-15,1610686800,129.8670163842887,135.28753738217716,2021-01-20,1611118800,-1.0,0
2021-01-15,1610686800,129.8670163842887,135.28753738217716,2021-01-21,1611205200,-1.0,1
2021-01-22,1611291600,124.06108249682791,129.8670163842887,2021-01-22,1611291600,-1.0,0
2021-01-22,1611291600,124.06108249682791,129.8670163842887,2021-01-25,1611550800,-1.0,0
2021-01-22,1611291600,124.06108249682791,129.8670163842887,2021-01-26,1611637200,-1.0,0
2021-01-22,1611291600,124.06108249682791,129.8670163842887,2021-01-27,1611723600,-1.0,0
2021-01-22,1611291600,124.06108249682791,129.8670163842887,2021-01-28,1611810000,-1.0,1
2021-01-29,1611896400,117.73851930352123,124.06108249682791,2021-01-29,1611896400,-1.0,1
2021-02-01,1612155600,124.06108249682791,130.42831974775555,2021-02-01,1612155600,1.0,0
2021-02-01,1612155600,124.06108249682791,130.42831974775555,2021-02-02,1612242000,1.0,0
2021-02-01,1612155600,124.06108249682791,130.42831974775555,2021-02-03,1612328400,1.0,0
2021-02-01,1612155600,124.06108249682791,130.42831974775555,2021-02-04,1612414800,1.0,0
2021-02-01,1612155600,124.06108249682791,130.42831974775555,2021-02-05,1612501200,1.0,0
2021-02-01,1612155600,124.06108249682791,130.42831974775555,2021-02-08,1612760400,1.0,0
2021-02-01,1612155600,124.06108249682791,130.42831974775555,2021-02-09,1612846800,1.0,0
2021-02-01,1612155600,124.06108249682791,130.42831974775555,2021-02-10,1612933200,1.0,0
2021-02-01,1612155600,124.06108249682791,130.42831974775555,2021-02-11,1613019600,1.0,0
2021-02-01,1612155600,124.06108249682791,130.42831974775555,2021-02-12,1613106000,1.0,0
2021-02-01,1612155600,124.06108249682791,130.42831974775555,2021-02-16,1613451600,1.0,0
2021-02-01,1612155600,124.06108249682791,130.42831974775555,2021-02-17,1613538000,1.0,0
2021-02-01,1612155600,124.06108249682791,130.42831974775555,2021-02-18,1613624400,1.0,0
2021-02-01,1612155600,124.06108249682791,130.42831974775555,2021-02-19,1613710800,1.0,1
2021-02-22,1613970000,119.18186417974381,124.06108249682791,2021-02-22,1613970000,-1.0,0
2021-02-22,1613970000,119.18186417974381,124.06108249682791,2021-02-23,1614056400,-1.0,1
2021-02-24,1614142800,124.06108249682791,129.02379624982387,2021-02-24,1614142800,1.0,1
2021-02-25,1614229200,119.08127686904592,124.06108249682791,2021-02-25,1614229200,-1.0,0
2021-02-25,1614229200,119.08127686904592,124.06108249682791,2021-02-26,1614315600,-1.0,1
2021-03-01,1614574800,124.06108249682791,129.0861904105787,2021-03-01,1614574800,1.0,0
2021-03-01,1614574800,124.06108249682791,129.0861904105787,2021-03-02,1614661200,1.0,0
2021-03-01,1614574800,124.06108249682791,129.0861904105787,2021-03-03,1614747600,1.0,0
2021-03-01,1614574800,124.06108249682791,129.0861904105787,2021-03-04,1614834000,1.0,1
2021-03-05,1614920400,129.0861904105787,134.5925998525986,2021-03-05,1614920400,1.0,0
2021-03-05,1614920400,129.0861904105787,134.5925998525986,2021-03-08,1615179600,1.0,0
2021-03-05,1614920400,129.0861904105787,134.5925998525986,2021-03-09,1615266000,1.0,1
2021-03-10,1615352400,134.5925998525986,140.33026295176685,2021-03-10,1615352400,1.0,1
2021-03-11,1615438800,128.8726269747995,134.5925998525986,2021-03-11,1615438800,-1.0,0
2021-03-11,1615438800,128.8726269747995,134.5925998525986,2021-03-12,1615525200,-1.0,0
2021-03-11,1615438800,128.8726269747995,134.5925998525986,2021-03-15,1615780800,-1.0,0
2021-03-11,1615438800,128.8726269747995,134.5925998525986,2021-03-16,1615867200,-1.0,0
2021-03-11,1615438800,128.8726269747995,134.5925998525986,2021-03-17,1615953600,-1.0,1
2021-03-18,1616040000,134.5925998525986,140.23919062154283,2021-03-18,1616040000,1.0,0
2021-03-18,1616040000,134.5925998525986,140.23919062154283,2021-03-19,1616126400,1.0,0
2021-03-18,1616040000,134.5925998525986,140.23919062154283,2021-03-22,1616385600,1.0,0
2021-03-18,1616040000,134.5925998525986,140.23919062154283,2021-03-23,1616472000,1.0,0
2021-03-18,1616040000,134.5925998525986,140.23919062154283,2021-03-24,1616558400,1.0,0
2021-03-18,1616040000,134.5925998525986,140.23919062154283,2021-03-25,1616644800,1.0,1
2021-03-26,1616731200,140.23919062154283,145.68189060316945,2021-03-26,1616731200,1.0,0
2021-03-26,1616731200,140.23919062154283,145.68189060316945,2021-03-29,1616990400,1.0,1
2021-03-30,1617076800,134.84856665779336,140.23919062154283,2021-03-30,1617076800,-1.0,0
2021-03-30,1617076800,134.84856665779336,140.23919062154283,2021-03-31,1617163200,-1.0,0
2021-03-30,1617076800,134.84856665779336,140.23919062154283,2021-04-01,1617249600,-1.0,1
2021-04-05,1617595200,140.23919062154283,145.5326508432475,2021-04-05,1617595200,1.0,0
2021-04-05,1617595200,140.23919062154283,145.5326508432475,2021-04-06,1617681600,1.0,1
2021-04-07,1617768000,134.64691114466484,140.23919062154283,2021-04-07,1617768000,-1.0,0
2021-04-07,1617768000,134.64691114466484,140.23919062154283,2021-04-08,1617854400,-1.0,0
2021-04-07,1617768000,134.64691114466484,140.23919062154283,2021-04-09,1617940800,-1.0,0
2021-04-07,1617768000,134.64691114466484,140.23919062154283,2021-04-12,1618200000,-1.0,0
2021-04-07,1617768000,134.64691114466484,140.23919062154283,2021-04-13,1618286400,-1.0,0
2021-04-07,1617768000,134.64691114466484,140.23919062154283,2021-04-14,1618372800,-1.0,1
2021-04-15,1618459200,140.23919062154283,145.34101701874846,2021-04-15,1618459200,1.0,1
2021-04-16,1618545600,145.34101701874846,152.2821415304394,2021-04-16,1618545600,1.0,1
2021-04-19,1618804800,152.2821415304394,158.8881857198667,2021-04-19,1618804800,1.0,0
2021-04-19,1618804800,152.2821415304394,158.8881857198667,2021-04-20,1618891200,1.0,1
2021-04-21,1618977600,158.8881857198667,165.43710137299533,2021-04-21,1618977600,1.0,1
2021-04-22,1619064000,152.41233547053295,158.8881857198667,2021-04-22,1619064000,-1.0,1
2021-04-23,1619150400,158.8881857198667,165.3540466656766,2021-04-23,1619150400,1.0,1
2021-04-26,1619409600,152.4264576987575,158.8881857198667,2021-04-26,1619409600,-1.0,0
2021-04-26,1619409600,152.4264576987575,158.8881857198667,2021-04-27,1619496000,-1.0,0
2021-04-26,1619409600,152.4264576987575,158.8881857198667,2021-04-28,1619582400,-1.0,0
2021-04-26,1619409600,152.4264576987575,158.8881857198667,2021-04-29,1619668800,-1.0,0
2021-04-26,1619409600,152.4264576987575,158.8881857198667,2021-04-30,1619755200,-1.0,0
2021-04-26,1619409600,152.4264576987575,158.8881857198667,2021-05-03,1620014400,-1.0,1
2021-05-04,1620100800,158.8881857198667,165.11214220029817,2021-05-04,1620100800,1.0,0
2021-05-04,1620100800,158.8881857198667,165.11214220029817,2021-05-05,1620187200,1.0,0
2021-05-04,1620100800,158.8881857198667,165.11214220029817,2021-05-06,1620273600,1.0,0
2021-05-04,1620100800,158.8881857198667,165.11214220029817,2021-05-07,1620360000,1.0,0
2021-05-04,1620100800,158.8881857198667,165.11214220029817,2021-05-10,1620619200,1.0,0
2021-05-04,1620100800,158.8881857198667,165.11214220029817,2021-05-11,1620705600,1.0,0
2021-05-04,1620100800,158.8881857198667,165.11214220029817,2021-05-12,1620792000,1.0,0
2021-05-04,1620100800,158.8881857198667,165.11214220029817,2021-05-13,1620878400,1.0,0
2021-05-04,1620100800,158.8881857198667,165.11214220029817,2021-05-14,1620964800,1.0,1
2021-05-17,1621224000,165.11214220029817,170.95086996968033,2021-05-17,1621224000,1.0,1
2021-05-18,1621310400,159.286752128729,165.11214220029817,2021-05-18,1621310400,-1.0,0
2021-05-18,1621310400,159.286752128729,165.11214220029817,2021-05-19,1621396800,-1.0,0
2021-05-18,1621310400,159.286752128729,165.11214220029817,2021-05-20,1621483200,-1.0,0
2021-05-18,1621310400,159.286752128729,165.11214220029817,2021-05-21,1621569600,-1.0,0
2021-05-18,1621310400,159.286752128729,165.11214220029817,2021-05-24,1621828800,-1.0,0
2021-05-18,1621310400,159.286752128729,165.11214220029817,2021-05-25,1621915200,-1.0,0
2021-05-18,1621310400,159.286752128729,165.11214220029817,2021-05-26,1622001600,-1.0,1
2021-05-27,1622088000,165.11214220029817,170.0887110490814,2021-05-27,1622088000,1.0,0
2021-05-27,1622088000,165.11214220029817,170.0887110490814,2021-05-28,1622174400,1.0,0
2021-05-27,1622088000,165.11214220029817,170.0887110490814,2021-06-01,1622520000,1.0,0
2021-05-27,1622088000,165.11214220029817,170.0887110490814,2021-06-02,1622606400,1.0,0
2021-05-27,1622088000,165.11214220029817,170.0887110490814,2021-06-03,1622692800,1.0,0
2021-05-27,1622088000,165.11214220029817,170.0887110490814,2021-06-04,1622779200,1.0,0
2021-05-27,1622088000,165.11214220029817,170.0887110490814,2021-06-07,1623038400,1.0,1
2021-06-08,1623124800,160.27058285557183,165.11214220029817,2021-06-08,1623124800,-1.0,0
2021-06-08,1623124800,160.27058285557183,165.11214220029817,2021-06-09,1623211200,-1.0,0
2021-06-08,1623124800,160.27058285557183,165.11214220029817,2021-06-10,1623297600,-1.0,0
2021-06-08,1623124800,160.27058285557183,165.11214220029817,2021-06-11,1623384000,-1.0,0
2021-06-08,1623124800,160.27058285557183,165.11214220029817,2021-06-14,1623643200,-1.0,0
2021-06-08,1623124800,160.27058285557183,165.11214220029817,2021-06-15,1623729600,-1.0,0
2021-06-08,1623124800,160.27058285557183,165.11214220029817,2021-06-16,1623816000,-1.0,1
2021-06-17,1623902400,155.3367284710039,160.27058285557183,2021-06-17,1623902400,-1.0,1
2021-06-18,1623988800,150.36572082819083,155.3367284710039,2021-06-18,1623988800,-1.0,1
2021-06-21,1624248000,155.3367284710039,160.43094985361606,2021-06-21,1624248000,1.0,0
2021-06-21,1624248000,155.3367284710039,160.43094985361606,2021-06-22,1624334400,1.0,0
2021-06-21,1624248000,155.3367284710039,160.43094985361606,2021-06-23,1624420800,1.0,0
2021-06-21,1624248000,155.3367284710039,160.43094985361606,2021-06-24,1624507200,1.0,1
2021-06-25,1624593600,150.38041409915922,155.3367284710039,2021-06-25,1624593600,-1.0,0
2021-06-25,1624593600,150.38041409915922,155.3367284710039,2021-06-28,1624852800,-1.0,0
2021-06-25,1624593600,150.38041409915922,155.3367284710039,2021-06-29,1624939200,-1.0,1
2021-06-30,1625025600,155.3367284710039,160.231125947295,2021-06-30,1625025600,1.0,0
2021-06-30,1625025600,155.3367284710039,160.231125947295,2021-07-01,1625112000,1.0,0
2021-06-30,1625025600,155.3367284710039,160.231125947295,2021-07-02,1625198400,1.0,0
2021-06-30,1625025600,155.3367284710039,160.231125947295,2021-07-06,1625544000,1.0,0
2021-06-30,1625025600,155.3367284710039,160.231125947295,2021-07-07,1625630400,1.0,1
2021-07-08,1625716800,150.20416025135484,155.3367284710039,2021-07-08,1625716800,-1.0,1
2021-07-09,1625803200,155.3367284710039,160.49739896067805,2021-07-09,1625803200,1.0,0
2021-07-09,1625803200,155.3367284710039,160.49739896067805,2021-07-12,1626062400,1.0,0
2021-07-09,1625803200,155.3367284710039,160.49739896067805,2021-07-13,1626148800,1.0,0
2021-07-09,1625803200,155.3367284710039,160.49739896067805,2021-07-14,1626235200,1.0,0
2021-07-09,1625803200,155.3367284710039,160.49739896067805,2021-07-15,1626321600,1.0,0
2021-07-09,1625803200,155.3367284710039,160.49739896067805,2021-07-16,1626408000,1.0,1
2021-07-19,1626667200,150.01863238120586,155.3367284710039,2021-07-19,1626667200,-1.0,1
2021-07-20,1626753600,143.49640029782196,150.01863238120586,2021-07-20,1626753600,-1.0,0
2021-07-20,1626753600,143.49640029782196,150.01863238120586,2021-07-21,1626840000,-1.0,0
2021-07-20,1626753600,143.49640029782196,150.01863238120586,2021-07-22,1626926400,-1.0,0
2021-07-20,1626753600,143.49640029782196,150.01863238120586,2021-07-23,1627012800,-1.0,1
2021-07-26,1627272000,150.01863238120586,155.97309038134975,2021-07-26,1627272000,1.0,0
2021-07-26,1627272000,150.01863238120586,155.97309038134975,2021-07-27,1627358400,1.0,0
2021-07-26,1627272000,150.01863238120586,155.97309038134975,2021-07-28,1627444800,1.0,1
2021-07-29,1627531200,144.3375419197204,150.01863238120586,2021-07-29,1627531200,-1.0,1
2021-07-30,1627617600,150.01863238120586,155.61021638115665,2021-07-30,1627617600,1.0,0
2021-07-30,1627617600,150.01863238120586,155.61021638115665,2021-08-02,1627876800,1.0,0
2021-07-30,1627617600,150.01863238120586,155.61021638115665,2021-08-03,1627963200,1.0,0
2021-07-30,1627617600,150.01863238120586,155.61021638115665,2021-08-04,1628049600,1.0,1
2021-08-05,1628136000,144.53880161739406,150.01863238120586,2021-08-05,1628136000,-1.0,1
2021-08-06,1628222400,150.01863238120586,155.34747523331683,2021-08-06,1628222400,1.0,0
2021-08-06,1628222400,150.01863238120586,155.34747523331683,2021-08-09,1628481600,1.0,0
2021-08-06,1628222400,150.01863238120586,155.34747523331683,2021-08-10,1628568000,1.0,1
2021-08-11,1628654400,155.34747523331683,160.6412980270806,2021-08-11,1628654400,1.0,0
2021-08-11,1628654400,155.34747523331683,160.6412980270806,2021-08-12,1628740800,1.0,0
2021-08-11,1628654400,155.34747523331683,160.6412980270806,2021-08-13,1628827200,1.0,0
2021-08-11,1628654400,155.34747523331683,160.6412980270806,2021-08-16,1629086400,1.0,1
2021-08-17,1629172800,150.15266226963797,155.34747523331683,2021-08-17,1629172800,-1.0,0
2021-08-17,1629172800,150.15266226963797,155.34747523331683,2021-08-18,1629259200,-1.0,1
2021-08-19,1629345600,145.00929803054754,150.15266226963797,2021-08-19,1629345600,-1.0,0
2021-08-19,1629345600,145.00929803054754,150.15266226963797,2021-08-20,1629432000,-1.0,0
2021-08-19,1629345600,145.00929803054754,150.15266226963797,2021-08-23,1629691200,-1.0,1
2021-08-24,1629777600,150.15266226963797,154.9281474129622,2021-08-24,1629777600,1.0,0
2021-08-24,1629777600,150.15266226963797,154.9281474129622,2021-08-25,1629864000,1.0,1
2021-08-26,1629950400,145.47169803891452,150.15266226963797,2021-08-26,1629950400,-1.0,0
2021-08-26,1629950400,145.47169803891452,150.15266226963797,2021-08-27,1630036800,-1.0,0
2021-08-26,1629950400,145.47169803891452,150.15266226963797,2021-08-30,1630296000,-1.0,0
2021-08-26,1629950400,145.47169803891452,150.15266226963797,2021-08-31,1630382400,-1.0,0
2021-08-26,1629950400,145.47169803891452,150.15266226963797,2021-09-01,1630468800,-1.0,0
2021-08-26,1629950400,145.47169803891452,150.15266226963797,2021-09-02,1630555200,-1.0,1
