start,start_unix,end,end_unix,direction,finished,bottom,top,start_open,start_high,start_low,start_close,start_volume,end_open,end_high,end_low,end_close,end_volume,bb_bbh,bb_bbl,kch_high,kch_low,squeeze,rsi,roc,tsi,mfi,vwap,atr,adx,obv,pocket_pivot,cmf,aroon_up,aroon,aroon_down,sma,ema20,ema50,macd_diff,rel_open,rel_high,rel_low,rel_close
2016-03-15,1458014400,2016-04-08,1460088000,-0.25,0,50.847903998742034,58.87111406982911,55.02,55.43,53.59,54.87,4161514.0,54.69,54.79,54.0,54.76,3372605.0,5.4889292648318815,-4.51376491128913,3.3802045288531986,-2.6095690284879396,0,3.664815761447038,1.6521254872842037,2.900390816926663,-13.224466081596916,-0.43351957874871516,3.3577947226443916,-11.27601859735377,0.628922867000704,0,0.038278707810925745,-10.0,-44.0,34.0,0.48758217677138305,-1.2187276036118675,-2.9808605023401924,-0.35086903648854684,-0.0012783053323593974,0.0005478451424396624,-0.013878743608473298,0.028163725122042793
2016-03-15,1458014400,2016-04-11,1460347200,-0.25,0,50.847903998742034,58.87111406982911,55.02,55.43,53.59,54.87,4161514.0,55.07,55.74,54.93,55.17,3903101.0,4.556579618147865,-5.232671697176343,2.453930276116239,-3.246631623466868,0,4.715275679211302,-1.5524625267665908,3.9712409090594676,-6.580405206901482,-1.2655620365282942,3.2216614971336517,-10.998051173310964,0.736768830269741,0,-0.023559867922481163,-14.0,-44.0,30.0,-0.3380460395142535,-1.7668444270971406,-3.5566943295764304,-0.22043414820263946,-0.0018125793003443968,0.010331702011963095,-0.004350190320826619,0.007487216946676423
2016-03-15,1458014400,2016-04-12,1460433600,-0.25,1,50.847903998742034,58.87111406982911,55.02,55.43,53.59,54.87,4161514.0,55.5,58.01,54.82,57.77,5750530.0,0.45481788677403756,-9.750299970900784,-1.905256476833415,-7.622756909583998,0,10.667580219340373,3.6419088625762486,7.72656654431392,-3.8687134004415213,-5.510921433152561,3.2513264946700287,-9.675287090939923,1.092769565462397,0,0.08520923602623687,50.0,24.0,26.0,-4.647741042063373,-5.598604757631691,-7.587532195614742,0.034680625370551665,-0.03929375108187649,0.004154405400726979,-0.051064566383936305,0.047127061808954096
2016-03-31,1459396800,2016-04-13,1460520000,0.75,0,50.847903998742034,61.13785515891031,54.77,55.47,53.94,54.1,6207529.0,57.94,58.4,57.01,58.1,4763588.0,0.6375641686766187,-10.460283617902064,-2.22518646012621,-7.832759609868049,0,11.346378281176072,5.886641151813385,11.062792386863219,3.926804477384472,-5.742496871665907,3.1728285108951786,-8.290886825005703,0.9049553695883248,0,0.1730576884008269,50.0,28.0,22.0,-4.911359724612723,-5.550525809457639,-7.794288080757482,0.20962365657667026,-0.002753872633390775,0.005163511187607606,-0.018760757314974286,0.0057123074259997075
2016-03-31,1459396800,2016-04-14,1460606400,0.75,1,50.847903998742034,61.13785515891031,54.77,55.47,53.94,54.1,6207529.0,58.29,58.74,57.52,58.12,2780422.0,1.180614812421581,-10.691970627975593,-2.08476714842854,-7.569970176646024,0,11.388888631201283,3.9156087967101696,13.779023691122816,10.104438607989067,-5.530336320091919,3.095120163060575,-6.867731877443436,0.5341167177870694,0,0.1391290875353724,50.0,32.0,18.0,-4.755677907777027,-5.051310458706354,-7.519114859421492,0.3048845395770593,0.0029249827942188222,0.010667584308327704,-0.010323468685478177,0.00034423407917372195
2016-04-08,1460088000,2016-04-15,1460692800,0.25,1,54.510000000000005,61.13785515891031,54.69,54.79,54.0,54.76,3372605.0,57.83,57.83,56.08,56.55,5133451.0,3.8783275169956113,-8.184251478091994,0.6292366637194107,-5.018862363689948,0,6.274840479754225,-0.8242721851981865,13.849225598105921,2.9365017769590906,-2.655389427310908,3.2115056086927476,-6.7040845770933934,-0.988028662162278,0,0.06483015205744941,46.0,32.0,14.0,-2.1529619805481843,-2.185222612387065,-4.7573852137963115,0.2430434838762262,0.022634836427939842,0.022634836427939842,-0.008311229000884102,-0.027013076393668234
2016-04-13,1460520000,2016-04-18,1460952000,-0.25,0,54.550719543127784,61.249917549941024,57.94,58.4,57.01,58.1,4763588.0,55.31,58.03,54.96,57.85,3821093.0,1.9274685767312292,-10.37517817050822,-1.5381734370498634,-7.194180351483723,0,9.234793276820298,2.6255100230619193,15.234383078780878,3.299170116174004,-4.700983465834582,3.2941577333380336,-7.3296314624038885,0.7398074259020354,0,0.07181859564725845,42.0,32.0,10.0,-4.223854796888489,-3.9658496405970283,-6.627171880681587,0.268578536789424,-0.04390665514261016,0.003111495246326701,-0.0499567847882455,0.02298850574712641
2016-04-13,1460520000,2016-04-19,1461038400,-0.25,0,54.550719543127784,61.249917549941024,57.94,58.4,57.01,58.1,4763588.0,58.62,59.89,58.04,59.11,4102385.0,0.5082337447203997,-12.617859865512173,-3.366040715051028,-8.996221733491225,0,11.868349384509031,4.3977393147297805,17.586428550487067,10.495416609011158,-6.340522202405168,3.2401712586181555,-7.011291985225917,0.7993689591879578,0,0.1505731985146196,50.0,43.99999999999999,6.000000000000007,-6.054813060395887,-5.440271674651953,-8.279582689493509,0.3443758007910934,-0.008289629504314,0.013195736761969279,-0.018101844019624447,0.021780466724286907
2016-04-13,1460520000,2016-04-20,1461124800,-0.25,0,54.550719543127784,61.249917549941024,57.94,58.4,57.01,58.1,4763588.0,58.36,59.8,57.25,59.29,4215498.0,0.9623325655636137,-13.18361777386184,-3.3929274189014507,-9.201664136729065,0,12.235224444012808,4.808202227328971,19.624838702275632,12.18303244194081,-6.053522320698846,3.306802882032563,-7.237731778861093,0.8294729878938523,0,0.28337627082461253,50.0,48.0,2.0,-6.110642604149106,-5.181886221144538,-8.222429635001802,0.377995048101026,-0.01568561308821048,0.008601787822567042,-0.03440715129026817,0.0030451700219928934
2016-04-13,1460520000,2016-04-21,1461211200,-0.25,0,54.550719543127784,61.249917549941024,57.94,58.4,57.01,58.1,4763588.0,59.3,59.98,58.79,59.13,3493926.0,1.989535978428421,-13.073588067046742,-2.9077174587067987,-8.59349456000902,0,11.679959144709024,6.713589604764494,21.037530018693765,20.44318598105987,-5.041019159101168,3.2226624838542652,-7.359945854908766,-0.6958783491249014,0,0.20974313774262385,46.0,48.0,-2.0,-5.542026044309168,-4.456239800102708,-7.661379147940423,0.3608560223022197,0.002875021139861156,0.014375105699306445,-0.005750042279722756,-0.0026986001011974903
2016-04-13,1460520000,2016-04-22,1461297600,-0.25,0,54.550719543127784,61.249917549941024,57.94,58.4,57.01,58.1,4763588.0,59.51,61.09,59.38,60.45,3432571.0,0.8778724213738514,-15.248426598379623,-4.610697546181413,-10.135925006892748,0,14.435526319484126,9.15492957746479,23.438727709642084,26.6641795672344,-6.347003228230506,3.158724358636341,-6.947670001545333,0.6863514276408264,0,0.2807376191197261,50.0,56.0,-6.0,-7.1852770885029,-5.919454667943896,-9.298188456468054,0.4064288289049365,-0.015550041356493072,0.010587262200165481,-0.017700578990901605,0.022323693556570268
2016-04-13,1460520000,2016-04-25,1461556800,-0.25,1,54.550719543127784,61.249917549941024,57.94,58.4,57.01,58.1,4763588.0,60.05,60.15,59.04,59.58,2984994.0,3.0576494459161125,-14.041200973274272,-2.8465928163813317,-8.484390735146022,0,11.373642856999126,7.254725472547258,24.05241284382971,27.225818613060454,-4.238605376507735,3.14497139168749,-6.812635163096285,-0.6030314884160993,0,0.28081152211652705,46.0,56.0,-10.0,-5.4917757636790725,-4.112749291762142,-7.661045329555634,0.3482321780253874,0.007888553205773752,0.009566968781470342,-0.009063444108761365,-0.01439205955334999
2016-04-15,1460692800,2016-04-26,1461643200,0.75,0,54.550719543127784,64.68008258929225,57.83,57.83,56.08,56.55,5133451.0,60.14,61.9,59.74,61.84,3888427.0,0.619213821667941,-17.60498354999912,-5.932514014661521,-11.412785683484273,0,15.815441194869834,9.957325746799434,26.59708774290933,27.28763440173168,-6.7278088239761615,3.0815770441203436,-5.91636337614116,0.7917887023605891,0,0.31029990713483496,50.0,64.0,-14.0,-8.492884864165589,-6.891605412786134,-10.60288694290496,0.427001202324365,-0.027490297542044018,0.0009702457956015653,-0.03395860284605434,0.03793219201074205
2016-04-15,1460692800,2016-04-27,1461729600,0.75,1,54.550719543127784,64.68008258929225,57.83,57.83,56.08,56.55,5133451.0,62.51,63.81,62.03,63.13,4008397.0,0.18957059642694674,-19.611398570448827,-7.299487829346859,-12.605998204762656,0,18.024703733615,14.990892531876145,29.67942136834367,27.895920901496027,-7.626530862809716,3.025889227794377,-4.407400737362362,0.8160761253578886,0,0.3080981368700714,50.0,68.0,-18.0,-9.71091398701094,-7.95664328016052,-11.94219332622471,0.5246120999290802,-0.009821004276889034,0.010771424045620037,-0.017424362426738504,0.02086028460543332
2016-04-18,1460952000,2016-04-28,1461816000,0.25,1,57.753652796622866,64.68008258929225,55.31,58.03,54.96,57.85,3821093.0,62.63,63.31,60.95,61.17,3422773.0,4.146007745243338,-16.625981588630594,-3.6641054983379604,-9.27633371478393,0,11.652218815696152,13.068391866913123,29.086225790093174,21.61914988080389,-3.939648861611431,3.175362608139573,-3.7762314784222113,-0.7057727719377055,0,0.20187873751870875,46.0,68.0,-21.999999999999996,-6.239986921693628,-4.5305081974934325,-8.762985370101234,0.4203126896460281,0.023867909105770746,0.03498446951119827,-0.0035965342488147867,-0.031047045778552218
2016-04-26,1461643200,2016-04-29,1461902400,-0.25,0,57.753652796622866,64.70859196373645,60.14,61.9,59.74,61.84,3888427.0,61.78,62.18,60.53,61.72,4876260.0,3.9314697166422405,-16.783057532585204,-3.859364873622809,-9.439403758911197,0,12.684769314774762,14.934823091247665,29.0792509341181,13.399576225582557,-4.028644116274023,3.113230371746447,-3.478547613999602,1.0011780296962725,1,0.26453618269996776,42.0,68.0,-26.0,-6.425793907971482,-4.868756397843384,-9.200487635293328,0.3541517160073593,0.0009721322099804919,0.007453013609850956,-0.019280622164614347,0.0089913356220368
2016-04-26,1461643200,2016-05-02,1462161600,-0.25,1,57.753652796622866,64.70859196373645,60.14,61.9,59.74,61.84,3888427.0,61.5,62.04,60.27,61.84,4556059.0,4.071099749475238,-15.760944510147965,-3.371873652436406,-8.923296679603283,0,12.91410664723869,17.99274947529099,29.170944553534195,4.426014905059311,-3.532678082683418,3.0896917402911646,-3.3846019127742366,0.9332536153338515,0,0.24573972495488575,38.0,68.0,-30.0,-5.844922380336357,-4.572085606960357,-9.008970253933285,0.2871146643171594,-0.00549805950840887,0.0032341526520049957,-0.025388098318240626,0.0019442644199612058
2016-04-28,1461816000,2016-05-03,1462248000,0.25,0,57.753652796622866,64.70859196373645,62.63,63.31,60.95,61.17,3422773.0,60.83,61.42,59.8,60.23,4340555.0,6.617467076138794,-12.003487331825298,-0.10238530079139707,-5.8603132436770125,0,7.889421429029397,14.549258273107643,26.888295014693398,-3.7168785111161995,-0.5843874799700046,3.1876200562781647,-3.632086172475823,-0.8914092611026158,0,0.16146828569465715,34.0,68.0,-34.0,-2.6930101278432517,-1.8287182504796107,-6.318791464307878,0.11198374609793471,0.00996181304997501,0.01975759588245074,-0.007139299352482142,-0.02603492884864178
2016-04-28,1461816000,2016-05-04,1462334400,0.25,0,57.753652796622866,64.70859196373645,62.63,63.31,60.95,61.17,3422773.0,60.21,61.25,58.87,59.27,3957728.0,7.850906893158637,-9.042065995571306,2.1804172993644926,-3.8276812327765413,0,5.1260488558119945,11.640610284422676,23.737219869800168,-9.540247034838444,1.1622930780033585,3.294698146334257,-4.496369469757095,-0.8150966807142725,0,0.11217585786943489,30.0,68.0,-38.0,-0.5955795512063418,-0.21590486177169055,-4.6131394994881845,-0.08049141354019262,0.015859625442888436,0.03340644508182877,-0.006748776784207933,-0.015938900879960083
2016-04-28,1461816000,2016-05-05,1462420800,0.25,0,57.753652796622866,64.70859196373645,62.63,63.31,60.95,61.17,3422773.0,60.09,61.81,59.87,60.7,5394583.0,4.8080241143123885,-9.457118018760497,0.458539264140569,-5.520043931905548,0,8.25089475537684,13.969207660533241,22.498948195252165,-0.3478042026523056,-0.6197928964659951,3.2861824767380665,-4.997647475143644,1.1059246966764507,0,0.13993327422302215,26.0,68.0,-42.0,-2.324546952224054,-2.3222224382105168,-6.591277620117765,-0.12104006903012277,-0.01004942339373971,0.018286655683690256,-0.013673805601318034,0.024126877003543212
2016-04-28,1461816000,2016-05-06,1462507200,0.25,0,57.753652796622866,64.70859196373645,62.63,63.31,60.95,61.17,3422773.0,58.88,60.99,58.32,58.77,5260030.0,7.711386761881414,-5.26285860125526,4.329589926833407,-2.1652203505189647,0,3.0068767267030694,7.322863403944495,18.960000853621466,-7.901748638430668,2.873950932203556,3.4761741806971584,-6.403128768820384,-1.0793837218683529,0,0.018047410607562694,22.0,68.0,-46.0,1.224264080313091,0.8011707155511658,-3.385559867985293,-0.2783899831273402,0.001871703249957557,0.037774374680959566,-0.007656967840735107,-0.031795716639209215
2016-04-28,1461816000,2016-05-09,1462766400,0.25,0,57.753652796622866,64.70859196373645,62.63,63.31,60.95,61.17,3422773.0,58.42,58.88,57.54,58.74,3165844.0,7.171527703879036,-4.011840948686654,4.692429917148999,-1.8959255476109433,0,2.9289125876401556,6.4709081022294725,16.181337521806366,-14.228842688338077,2.9076747870496717,3.3924702512214076,-7.267704756172638,-0.6707782981281253,0,0.05099877080181646,18.0,64.0,-46.0,1.5798433775962053,0.7714474245714911,-3.2053844187523737,-0.37881205246019944,-0.005447735784814389,0.0023833844058562814,-0.020429009193054237,-0.0005104645227156368
2016-04-28,1461816000,2016-05-10,1462852800,0.25,0,57.753652796622866,64.70859196373645,62.63,63.31,60.95,61.17,3422773.0,58.84,59.65,58.8,59.56,4285104.0,5.651105505752099,-4.987908729392117,3.2619767181553527,-2.842791582717723,0,4.840021301787452,3.098494028042235,14.74103705283869,-6.929985699484,1.5576445224864983,3.215914483879031,-8.5285968875423,0.9247200744971803,0,0.06580273588722611,14.0,60.0,-46.0,0.331598388179998,-0.5572758861274281,-4.360055359274611,-0.3831801572179998,-0.012088650100738785,0.001511081262592251,-0.012760241773002057,0.013959822948587108
2016-04-28,1461816000,2016-05-11,1462939200,0.25,0,57.753652796622866,64.70859196373645,62.63,63.31,60.95,61.17,3422773.0,59.3,60.66,58.43,60.0,3364623.0,4.881521139383892,-5.373187806050552,2.729722222222236,-3.470277777777767,0,5.852423884285734,3.2702237521514603,14.006854984469655,-7.034625320701856,0.8564508345705377,3.229783650687924,-9.127083338963548,0.7400083391679211,0,0.11636502415636989,10.0,56.0,-46.0,-0.24583333333333712,-1.1639965744263776,-4.8629280923926075,-0.35049188174834867,-0.011666666666666714,0.010999999999999899,-0.02616666666666667,0.00738750839489577
2016-04-28,1461816000,2016-05-12,1463025600,0.25,0,57.753652796622866,64.70859196373645,62.63,63.31,60.95,61.17,3422773.0,60.8,61.14,59.42,60.13,2355668.0,4.650002077532164,-5.238726507932938,2.724097788125718,-3.545651089306503,1,6.158096119006167,3.4583620096352465,13.538593531299256,-8.133421363482867,0.6396673597261611,3.196920063121071,-9.42400609882364,0.5251782880440925,0,0.09580114801285532,6.000000000000007,52.00000000000001,-46.0,-0.29436221520037975,-1.2464708170757604,-4.869843636706818,-0.31527559235620517,0.011142524530184605,0.01679693996341247,-0.011807749875270224,0.00216666666666665
2016-04-28,1461816000,2016-05-13,1463112000,0.25,0,57.753652796622866,64.70859196373645,62.63,63.31,60.95,61.17,3422773.0,59.92,60.48,58.71,58.75,3406333.0,6.661722886762348,-2.1919356527197493,5.350921985815617,-1.069503546099284,1,2.125269334651243,3.8903625110521713,11.40760151838763,-8.43058411040159,2.9633456466831234,3.2534959807186743,-10.171243729571708,-0.7715439726652793,0,0.03873064984922459,2.0,48.0,-46.0,2.2348936170212994,0.9709783064765674,-2.5319520053012496,-0.37596698441130094,0.019914893617021256,0.0294468085106383,-0.0006808510638297571,-0.02295027440545494
2016-04-28,1461816000,2016-05-16,1463371200,0.25,0,57.753652796622866,64.70859196373645,62.63,63.31,60.95,61.17,3422773.0,59.49,60.81,59.49,60.27,3195936.0,3.8305637498671246,-4.115946195528309,2.8178751175266967,-3.150268237376281,1,5.804962420654931,4.183232497839242,11.216218414251127,-9.221217300643993,0.26027001510513514,3.1890511214699186,-10.670406072949998,0.7409147542700518,0,-0.0163963384075396,-2.0,32.0,-34.0,-0.14269122283059232,-1.425446969111647,-4.794391524174202,-0.30766178021868473,-0.012941762070681984,0.008959681433549083,-0.012941762070681984,0.02587234042553188
2016-04-28,1461816000,2016-05-17,1463457600,0.25,0,57.753652796622866,64.70859196373645,62.63,63.31,60.95,61.17,3422773.0,60.36,61.61,60.05,60.93,4159762.0,2.802595479158583,-4.952603685296765,1.8321571201925764,-4.023743093167013,1,7.304856106730099,3.079005244459483,11.721607813534407,-9.209089414542632,-1.0748076156910145,3.112064716164798,-10.674650240078806,0.9858053865886139,0,-0.023752054833063422,-6.0,32.0,-38.0,-1.075004103069105,-2.255767420645711,-5.59721084012736,-0.21626664770262005,-0.009354997538158494,0.01116034794025933,-0.014442803216806244,0.010950721752115422
2016-04-28,1461816000,2016-05-18,1463544000,0.25,0,57.753652796622866,64.70859196373645,62.63,63.31,60.95,61.17,3422773.0,60.77,61.36,59.67,60.06,2606908.0,4.288056542692132,-3.443900698536254,3.3674658674658815,-2.4300699300699478,1,4.727670802295606,1.298701298701304,11.029992383306189,-8.540267531802009,0.20589043927756734,3.132623734630815,-10.959848672365402,-0.6311800078504421,0,0.001036674832136587,-10.0,32.0,-42.0,0.42207792207793204,-0.7599022167189418,-4.063865796934778,-0.2123383895141121,0.01182151182151192,0.02164502164502169,-0.006493506493506551,-0.014278680452978754
2016-04-28,1461816000,2016-05-19,1463630400,0.25,0,57.753652796622866,64.70859196373645,62.63,63.31,60.95,61.17,3422773.0,59.15,59.9,58.01,59.82,3941141.0,4.678162156385525,-2.912866268722553,3.8359523013484704,-2.101861138972467,1,4.022174622994697,1.166920345002533,10.17101475162081,-7.691830292460061,0.29795308576414925,3.165317332384114,-11.601404928918189,-0.9592880404768559,0,0.027913612182577978,-14.0,32.0,-46.0,0.8826479438314863,-0.3272952313978834,-3.5346933638927283,-0.2227495090780932,-0.011200267469073877,0.0013373453694416337,-0.030257438983617546,-0.003996003996004083
2016-04-28,1461816000,2016-05-20,1463716800,0.25,0,57.753652796622866,64.70859196373645,62.63,63.31,60.95,61.17,3422773.0,60.2,60.74,59.41,60.45,3661620.0,3.5872234937135232,-3.9246924763438074,2.7135373586986304,-3.0995312930796928,1,5.603573472962829,0.0,10.127474953549898,0.027820600906203197,-0.9209314510782178,3.0657458072809054,-12.389607419483172,0.8973444049056201,0,0.000855918951931645,-18.0,28.0,-46.0,-0.16873449131514917,-1.2359661381718183,-4.361998246606362,-0.18557344601617376,-0.0041356492969396585,0.0047973531844498485,-0.017204301075268935,0.010531594784353171
2016-04-28,1461816000,2016-05-23,1463976000,0.25,1,57.753652796622866,64.70859196373645,62.63,63.31,60.95,61.17,3422773.0,59.61,61.16,59.56,60.71,3522862.0,3.198551191156213,-4.204975174025577,2.3870312414209707,-3.481853621039903,1,6.257169001136631,1.8966096005370974,10.366483345516562,7.623953286959882,-1.3611945097517548,3.0228208375317074,-12.865933332696786,0.8678204090130062,0,0.06930253201293142,-21.999999999999996,-31.999999999999996,10.0,-0.5032119914346822,-1.5009443082235236,-4.584461941005415,-0.14370906564891095,-0.01811892604183829,0.007412287926206407,-0.01894251358919452,0.004301075268817067
2016-04-29,1461902400,2016-05-24,1464062400,-0.25,0,57.79409114212761,64.70859196373645,61.78,62.18,60.53,61.72,4876260.0,61.1,62.06,60.24,61.62,3461134.0,1.61413228962995,-5.594982662885371,0.8592989289191877,-4.8677377474845684,1,8.507641045519314,-0.35575679172057884,11.53506685626827,14.909217773806887,-2.6527382136053603,2.9764233430764007,-12.784362265550767,0.852226100752794,0,0.15522953329584507,-26.0,-32.00000000000001,6.000000000000007,-1.9904251866277036,-2.67408869267301,-5.758510904112967,-0.05929171530747046,-0.00843881856540074,0.007140538786108541,-0.022395326192794496,0.01498929336188426
2016-04-29,1461902400,2016-05-25,1464148800,-0.25,0,57.79409114212761,64.70859196373645,61.78,62.18,60.53,61.72,4876260.0,61.63,62.28,61.47,62.06,3014604.0,0.44299638645361483,-5.986019267536463,-0.01879901170910614,-5.548931141905683,1,9.56639935510345,-1.6949152542372885,12.963556729133504,13.23758140415218,-3.293219916948118,2.837454172465335,-12.584020162748475,0.7464943807664237,0,0.2063429700169472,-30.0,-32.0,2.0,-2.771511440541417,-3.043728465239269,-6.174648396447651,0.017512551046163782,-0.006928778601353547,0.0035449564937157785,-0.009506928778601376,0.007140538786108541
2016-04-29,1461902400,2016-05-26,1464235200,-0.25,1,57.79409114212761,64.70859196373645,61.78,62.18,60.53,61.72,4876260.0,62.41,62.7,61.41,61.48,2491006.0,1.4648140097450693,-5.12291420493051,0.8417371502927864,-4.566525699414441,1,7.529493449377192,0.5067843714238927,13.325148388296048,16.80039697928943,-2.1000052976298775,2.8095098025624874,-12.156943152759343,-0.6247851444057836,0,0.2457508674932181,-34.0,-32.0,-2.0,-1.8290500975927273,-1.926280309897308,-5.082072057450048,0.020384945550628975,0.01512687052700068,0.019843851659076206,-0.00113858165256997,-0.009345794392523477
2016-05-03,1462248000,2016-05-27,1464321600,0.25,0,57.79409114212761,64.55124726514765,60.83,61.42,59.8,60.23,4340555.0,61.21,61.45,60.33,60.93,2249637.0,2.1866970969762036,-4.202124636775977,1.6614694458121306,-3.7086273866185167,1,5.630625973252741,-1.279974076474399,12.836195726564792,17.95854263666982,-0.9537542883791019,2.7671949246208087,-12.598220152990192,-0.5720220490734669,0,0.1994112561268671,-38.0,-32.0,-6.0,-1.007713769899894,-0.9418509574587972,-4.059574540539742,-0.021364232087764612,0.004595437387165724,0.008534383719021932,-0.00984736582964063,-0.00894599869876378
2016-05-03,1462248000,2016-05-31,1464667200,0.25,0,57.79409114212761,64.55124726514765,60.83,61.42,59.8,60.23,4340555.0,61.27,61.61,60.57,60.77,3475028.0,2.178330452949595,-3.848562475329061,1.8361581920903944,-3.4279523887883414,1,5.073973421301453,-1.7302716688227688,12.198747968692402,17.459093671499787,-0.45324539611303294,2.6985441922035025,-12.90423755245847,-0.9083002320901419,0,0.08017152274007873,-42.0,-32.0,-10.0,-0.8351160111897258,-0.6161816983014319,-3.657681957686563,-0.06395520350738082,0.008227743952608169,0.01382260984038175,-0.0032910975810432896,-0.002625964221237398
2016-05-03,1462248000,2016-06-01,1464753600,0.25,0,57.79409114212761,64.55124726514765,60.83,61.42,59.8,60.23,4340555.0,60.24,60.73,59.76,60.32,3516353.0,2.948229713463462,-3.123959156434296,2.524314765694058,-2.671308576480982,1,3.489419338328979,0.14942719574963212,10.999576627097372,9.821514610308178,0.35911669061532336,2.6440849958349397,-13.744118789581375,-0.9172499527269808,0,0.061497674841163544,-46.0,-32.0,-14.0,-0.08786472148541691,0.11331480176377795,-2.823694965368361,-0.12320246152227499,-0.0013262599469495706,0.006797082228116702,-0.009283819628647216,-0.007404969557347374
2016-05-03,1462248000,2016-06-02,1464840000,0.25,0,57.79409114212761,64.55124726514765,60.83,61.42,59.8,60.23,4340555.0,59.24,60.19,59.16,60.12,2198923.0,3.268378172499581,-2.6379723175428182,2.755322687957417,-2.2330339321357258,1,2.778998522575492,1.434115066644161,9.695264340630093,4.827654258489908,0.6616335765374544,2.601209117876066,-14.105995932537555,-0.5762230030397391,0,0.11317891302059076,30.0,48.0,-18.0,0.3152029274783814,0.4038493077380423,-2.4023647917367725,-0.17354849883707812,-0.014637391882900808,0.0011643379906853824,-0.015968063872255467,-0.003315649867374093
2016-05-03,1462248000,2016-06-03,1464926400,0.25,0,57.79409114212761,64.55124726514765,60.83,61.42,59.8,60.23,4340555.0,59.95,60.36,59.09,59.54,2362925.0,4.211957089753014,-1.821967167012005,3.605139402082642,-1.3192811555257151,1,0.7225253191078593,-1.9110378912685397,7.713037734022094,6.088008007602916,1.7220112463766384,2.5912963651893297,-14.57553328950847,-0.6246357244363576,0,0.17433229107764056,26.0,48.0,-21.999999999999996,1.1949949613704973,1.250307106261502,-1.39470528716285,-0.23953136111006723,0.006886126973463247,0.013772253946926494,-0.007557944239166892,-0.009647371922820946
2016-05-03,1462248000,2016-06-06,1465185600,0.25,1,57.79409114212761,64.55124726514765,60.83,61.42,59.8,60.23,4340555.0,60.21,60.82,59.74,60.71,2176580.0,2.156921570175953,-3.347829163653131,1.5650908691593912,-3.002525668478569,1,4.488018910701854,3.3010039135613365,7.613459701221598,5.058531020504965,-0.20413281102828762,2.510430398126744,-15.265191419910122,0.5812508728790737,0,0.2053751734030734,22.0,48.0,-26.0,-0.5954537967385818,-0.6342232651486057,-3.165804931540862,-0.19962929955423736,-0.00823587547356286,0.0018118926041839067,-0.015977598418711936,0.01965065502183405
2016-05-24,1464062400,2016-06-07,1465272000,-0.25,0,58.2150241883124,64.55124726514765,61.1,62.06,60.24,61.62,3461134.0,61.25,63.96,61.19,63.81,4690917.0,-1.734903813227632,-8.319946523710158,-2.896620174476311,-7.466436817635696,1,12.48355176529099,8.631256384065374,11.531081472724606,5.779042531277042,-4.687150651385124,2.581667655219256,-14.03451976301117,1.2401376250887701,1,0.28701031587098375,50.0,80.0,-30.0,-5.027425168468909,-4.941433417747817,-7.561542954512163,0.028170735646484868,-0.04011910358877924,0.002350728725905027,-0.04105939507914125,0.051062427936089616
2016-05-24,1464062400,2016-06-08,1465358400,-0.25,0,58.2150241883124,64.55124726514765,61.1,62.06,60.24,61.62,3461134.0,64.69,64.89,63.6,63.76,3973225.0,-0.7770345964590746,-8.47014231696626,-2.413739021329974,-7.056148055207018,0,12.29773767104264,7.051712558764264,14.47509202750035,13.105261640005594,-4.116059855557623,2.5436578800345373,-12.486610605161385,-1.047474508766757,0,0.24283899595858138,46.0,80.0,-34.0,-4.6235884567126675,-4.403376098870211,-7.195365199290109,0.16071007844167973,0.01458594730238394,0.017722710163111666,-0.0025094102885820924,-0.0007835762419684533
2016-05-24,1464062400,2016-06-09,1465444800,-0.25,1,58.2150241883124,64.55124726514765,61.1,62.06,60.24,61.62,3461134.0,62.87,63.82,62.75,63.18,3698299.0,0.6623328476714363,-7.655052062612853,-1.3284794766276349,-5.829903978052144,0,10.114861115529926,5.3,15.868479685982756,13.095316614727324,-2.692362877378642,2.504620747527503,-11.72203407733583,-0.9780314605432255,0,0.14677104248489564,42.0,80.0,-38.0,-3.4963596074707084,-3.189998297543937,-6.094646410265753,0.19240428078275462,-0.004906616017727128,0.01012978790756569,-0.0068059512503957365,-0.009096612296110362
2016-05-27,1464321600,2016-06-10,1465531200,0.25,0,58.2150241883124,64.21516938537276,61.21,61.45,60.33,60.93,2249637.0,62.24,63.0,60.75,60.92,3158679.0,4.415304597130444,-4.118193631930211,2.4844057780696147,-2.271011162179903,0,2.560872789120161,1.3138200565441527,13.393487702030876,5.564866153903424,1.1014477075163,2.696915398150079,-12.354251660200232,-0.8490175223899319,0,0.04055700813060958,38.0,80.0,-42.0,0.1485554826001163,0.36321033335077857,-2.5085706261599654,0.051577036834346335,0.02166776099803025,0.034143138542350515,-0.002790544977019027,-0.03577081354859124
2016-05-27,1464321600,2016-06-13,1465790400,0.25,1,58.2150241883124,64.21516938537276,61.21,61.45,60.33,60.93,2249637.0,60.5,62.07,60.14,60.8,2376221.0,4.441986497007889,-3.4123812338499846,2.838815789473699,-1.9523026315789451,0,2.194294538052631,3.4893617021276544,11.306744172220338,-1.068780730816279,1.3980851990930176,2.735959960901006,-13.217925091106508,-0.649607454612969,0,-0.011861205880532745,34.0,80.0,-46.0,0.5148026315789451,0.5078388914840701,-2.2253237889375583,-0.05354866444883366,-0.004934210526315708,0.02088815789473686,-0.010855263157894646,-0.001969796454366457
2016-06-07,1465272000,2016-06-14,1465876800,-0.25,0,58.29258800094557,64.22056394677894,61.25,63.96,61.19,63.81,4690917.0,60.67,62.04,60.56,61.98,2435573.0,2.58441323647709,-5.106194456225381,1.0016672044745718,-3.724050769065286,0,5.413057358076678,2.8372324539571823,11.079722802503905,-2.3031975216099383,-0.4981122573229868,2.662728475886409,-14.019907562662334,0.6702927089745312,0,-0.0013798013885544403,30.0,64.0,-34.0,-1.2608906098741386,-1.2717962111876346,-3.926530579757781,-0.04770145626899358,-0.021135850274281998,0.0009680542110359625,-0.022910616327847633,0.019407894736842124
2016-06-07,1465272000,2016-06-15,1465963200,-0.25,1,58.29258800094557,64.22056394677894,61.25,63.96,61.19,63.81,4690917.0,61.8,62.4,60.88,61.58,2344781.0,3.307102600094993,-4.440587497789011,1.715925083901709,-3.033993720905059,0,4.112992044278101,1.0667979648777262,10.31174640527154,-3.1738896139237127,0.11189495732691057,2.6649037746029727,-14.6167098933181,-0.6505995394923252,0,-0.039366441358333,26.0,64.0,-38.0,-0.566742448847009,-0.5704485487084412,-3.172965471771448,-0.07332828621914966,0.003572588502760654,0.013316011692107832,-0.011367327054238374,-0.0064536947402387135
2016-06-10,1465531200,2016-06-16,1466049600,0.25,0,58.20873774858588,64.22056394677894,62.24,63.0,60.75,60.92,3158679.0,60.69,60.76,59.26,59.89,3288667.0,6.237749828369289,-1.7879251497919455,4.537485389881439,-0.31474369677742686,0,-0.9997561930544379,-0.28305028305028584,7.268488956923451,-3.9565355071664072,2.695842430569641,2.8210792020140065,-14.571940767474043,-0.9178409946079015,0,0.001778996072416513,22.0,64.0,-42.0,2.2249123392886787,2.0224091700181646,-0.42338060098174424,-0.19949668907113804,0.01335782267490404,0.014526632158958108,-0.01051928535648694,-0.027443975316661207
2016-06-10,1465531200,2016-06-17,1466136000,0.25,1,58.20873774858588,64.22056394677894,62.24,63.0,60.75,60.92,3158679.0,60.47,60.92,60.01,60.42,3911164.0,5.2620433312246035,-2.506333301433145,3.639247489793675,-1.0082202361248989,0,0.5428239429026434,1.0030090270812462,5.5487363497600795,3.1593277499385692,1.6897933680061499,2.7183615102757424,-14.640861121433561,1.0867454166454176,0,-0.010844169840668228,18.0,64.0,-46.0,1.3778550148957152,1.020097112794076,-1.2460024746535794,-0.23993873885950046,0.0008275405494868604,0.00827540549486927,-0.006785832505792899,0.008849557522123908
2016-06-14,1465876800,2016-06-20,1466395200,-0.25,0,58.20873774858588,64.23555727661969,60.67,62.04,60.56,61.98,2435573.0,61.5,62.29,61.11,62.14,3387192.0,2.4844908054695765,-5.068977448533602,0.890998819869111,-3.603690591138289,0,5.174457201826215,2.795698924731179,6.301480193223402,3.1167670013022004,-1.0153018609690605,2.669277014875608,-15.166470960982611,0.9410796925680533,0,0.09631624926833982,14.0,7.999999999999993,6.000000000000007,-1.2922433215320126,-1.60693128914329,-3.8234000411499096,-0.14803924340230334,-0.010299324106855523,0.002413904087544161,-0.01657547473447052,0.028467394902350174
2016-06-14,1465876800,2016-06-21,1466481600,-0.25,0,58.20873774858588,64.23555727661969,60.67,62.04,60.56,61.98,2435573.0,61.99,63.66,61.87,63.43,3864865.0,0.8501560672983857,-7.020737810952824,-0.9480266960954395,-5.3812601818277415,0,8.260419307581913,4.480316257618183,8.398153258838928,11.487211282597478,-2.6665749713503146,2.629777885809794,-14.897749738256774,1.074022051118188,0,0.14861691484384712,10.0,8.0,2.0,-3.085290871827226,-3.2643705440867876,-5.5527377251735714,-0.005112338736183997,-0.022702191392085735,0.0036260444584581553,-0.024594040674759565,0.020759575152880627
2016-06-14,1465876800,2016-06-22,1466568000,-0.25,0,58.20873774858588,64.23555727661969,60.67,62.04,60.56,61.98,2435573.0,63.42,63.56,62.32,62.45,2530656.0,2.556430926707449,-5.552427724145417,0.6776087536696025,-3.7323191886843006,0,5.220393378216606,1.3469652710159128,8.685393413042837,10.873180675630913,-0.8914172025155978,2.622084578359715,-14.648222888582781,-0.7160681445462457,0,0.059263999637076535,6.000000000000007,8.000000000000007,-2.0,-1.4979983987189769,-1.580023217520349,-3.910986841702453,0.017450648126787316,0.015532425940752548,0.01777421937550039,-0.0020816653322658363,-0.015450102475169425
2016-06-14,1465876800,2016-06-23,1466654400,-0.25,1,58.20873774858588,64.23555727661969,60.67,62.04,60.56,61.98,2435573.0,63.31,63.47,62.72,63.12,2534489.0,1.6886084776168957,-6.6078099985294045,-0.3033903675538454,-4.657002534854229,0,6.841081168482987,1.708024492426676,9.658091477311945,16.26035533742484,-1.6457851296357546,2.5243746208371065,-14.416519385314075,0.7263150444453147,0,0.07835763521284182,2.0,8.0,-6.0,-2.4596007604562544,-2.3747484374047616,-4.73757277919168,0.06864844583456398,0.0030101394169836926,0.005544993662864428,-0.006337135614702172,0.010728582866292857
2016-06-16,1466049600,2016-06-24,1466740800,0.25,0,58.20873774858588,64.23555727661969,60.69,60.76,59.26,59.89,3288667.0,60.94,61.91,60.36,60.55,5401859.0,5.9895622635784775,-2.7822955418608757,3.8733828791632305,-0.7079548582438662,0,-0.4062884823604662,-1.5126870527000646,7.034356803428432,7.369137294751752,2.440095555052025,2.769141015540989,-14.599613586236584,-1.525110421215437,-1,-0.04903511472012295,-2.0,8.0,-10.0,1.603633360858808,1.600418146348332,-0.6670047756047808,-0.07181557938823568,0.006440957886044707,0.022460776218001577,-0.003137902559867789,-0.04071609632446138
2016-06-16,1466049600,2016-06-27,1467000000,0.25,0,58.20873774858588,64.23555727661969,60.69,60.76,59.26,59.89,3288667.0,59.76,60.36,58.35,58.71,4501276.0,9.568810292039714,-0.37105863133454875,7.0544484187815755,2.1779367512632746,0,-4.753987658960924,-3.6435253569670096,2.801075681340325,-2.164755064153546,5.02197399625652,2.9195918806519807,-13.793342676255405,-1.2754009598032037,0,-0.19840253321423446,-6.0,-56.0,50.0,4.598875830352583,4.328946197586546,2.3502126373966377,-0.27829558899028345,0.017884517118037735,0.028104241185487933,-0.006131834440470052,-0.03038810900082567
2016-06-16,1466049600,2016-06-28,1467086400,0.25,1,58.20873774858588,64.23555727661969,60.69,60.76,59.26,59.89,3288667.0,60.23,61.08,59.65,61.07,3313714.0,5.342394604875821,-4.17979431013211,2.9179629932863946,-1.8339610283281473,0,1.0408028211941698,0.493664637156487,2.233511715092416,-3.1429963990228416,0.5031477862930558,2.8834827844745035,-13.515907164421169,0.9416220441186127,0,-0.06739773059742055,-10.0,-56.0,46.0,0.5813001473718487,0.2689311983483691,-1.542085034808565,-0.24666063538881627,-0.013754707712461123,0.00016374652038630977,-0.02325200589487475,0.0401975813319706
2016-06-20,1466395200,2016-06-29,1467172800,-0.25,0,58.2318307571029,64.40920788662665,61.5,62.29,61.11,62.14,3387192.0,61.85,62.75,61.56,62.33,3049335.0,3.3406904018028456,-5.922111868191408,1.0110166319054628,-3.6801433231723735,0,3.789324925985653,3.332228116710872,3.139312345367439,4.305579178535709,-1.6808362200902565,2.815917372306563,-14.238791973966286,0.8717132616398927,0,-0.0331458588242276,-14.0,-56.0,42.0,-1.2907107331942882,-1.5905747920976978,-3.3938843916510706,-0.13707543316393378,-0.007700946574683121,0.006738328252847703,-0.012353601796887492,0.020632061568691684
2016-06-20,1466395200,2016-06-30,1467259200,-0.25,0,58.2318307571029,64.40920788662665,61.5,62.29,61.11,62.14,3387192.0,61.73,62.72,61.73,62.31,3921004.0,3.4597839973941547,-5.6263704201192155,1.2352217407585897,-3.45102444765422,0,3.7389180584071724,3.6427145708582915,3.7998038430915266,11.858719761986215,-1.5485635147761627,2.729107558527965,-14.91004215425818,-1.1227877224361622,0,0.03898136540530943,-18.0,-56.0,38.0,-1.0832932113625304,-1.4105127274820575,-3.2309986728120634,-0.06575134967767254,-0.009308297223559747,0.006580003209757601,-0.009308297223559747,-0.0003208727739451023
2016-06-20,1466395200,2016-07-01,1467345600,-0.25,0,58.2318307571029,64.40920788662665,61.5,62.29,61.11,62.14,3387192.0,62.58,64.04,62.28,63.33,2935971.0,1.9662628542714629,-6.72072361536415,-0.07605663455970557,-4.764198115690306,0,5.954761891451433,6.365468592542826,5.333765013234123,17.362734085466997,-2.9242204949822366,2.6918623487338524,-15.014560916954725,0.8434165360282175,0,0.06631951492670757,-21.999999999999996,-56.0,34.0,-2.3772303805463366,-2.712843467655233,-4.601744623662256,0.04437271050686298,-0.011842728564661287,0.011211116374546082,-0.016579819990525824,0.016369764082811766
2016-06-20,1466395200,2016-07-05,1467691200,-0.25,0,58.2318307571029,64.40920788662665,61.5,62.29,61.11,62.14,3387192.0,62.09,62.77,61.01,61.82,2991322.0,4.469304985868121,-4.275193047983976,2.5363959883532914,-2.376253639598829,1,2.068337318439447,1.8283643551309494,4.877529757936512,11.48002489673435,-0.5178698629367631,2.8287000890709124,-15.62505655858911,-0.8615012575873213,0,0.013941623295206604,-26.0,-56.0,30.0,0.09705596894207247,-0.3044808732922917,-2.1824892838189385,0.011483135357570784,0.004367518602394149,0.01536719508249762,-0.013102555807182226,-0.023843360176851403
2016-06-20,1466395200,2016-07-06,1467777600,-0.25,1,58.2318307571029,64.40920788662665,61.5,62.29,61.11,62.14,3387192.0,61.27,62.08,61.15,61.82,2379170.0,4.0671444908435035,-4.194934849950613,2.282163269707766,-2.3328480534886324,0,2.068337318439447,-3.1186334430340104,4.521559306453401,6.539609069355436,-0.5126538441197681,2.734104905466018,-16.191945368678184,0.6876007910560736,0,0.039634159748960625,-30.0,-56.0,26.0,-0.06389517955355473,-0.2754826948834932,-2.0969014687672143,-0.012981989931280524,-0.008896797153024827,0.004205758654157288,-0.01083791653186672,0.0
2016-06-24,1466740800,2016-07-07,1467864000,0.25,1,58.162543730663685,64.40920788662665,60.94,61.91,60.36,60.55,5401859.0,62.62,62.64,60.6,60.96,2287514.0,5.065086223535033,-2.832474674978613,3.566546369203863,-1.2366032370953661,1,-0.11806836500380058,-4.391468005018816,3.3110296269425272,7.647896275813146,1.0585822985957947,2.8136608880844816,-16.596042991093203,-0.6672861806026547,0,0.020185134832887343,-34.0,-56.0,22.0,1.1163057742782172,1.0236404326363413,-0.687655032924269,-0.08573793326412771,0.02723097112860895,0.027559055118110187,-0.0059055118110236116,-0.0139113555483662
2016-06-29,1467172800,2016-07-08,1467950400,-0.25,0,58.162543730663685,64.40920788662665,61.85,62.75,61.56,62.33,3049335.0,61.88,62.05,60.93,61.66,2126288.0,3.577880231183954,-3.8876434488291096,2.256730457346734,-2.499999999999986,1,1.6224433530004134,-2.4058246280468554,3.048724769589873,6.045711097479469,0.06887663908641173,2.712768153224121,-16.971276497621435,0.6271416079172186,0,0.04380779521618191,-38.0,-56.0,18.0,-0.15488160882257773,-0.11150140193014124,-1.7439256038955193,-0.08519666937687054,0.003567953292247905,0.006325008108984731,-0.011839117742458605,0.011482939632545763
2016-06-29,1467172800,2016-07-11,1468209600,-0.25,0,58.162543730663685,64.40920788662665,61.85,62.75,61.56,62.33,3049335.0,61.95,62.66,61.7,61.92,1785717.0,3.1998462040477875,-4.186603309990915,1.7665267011197159,-2.7618970714900968,1,2.2705121390938103,1.6414970453053184,3.1024706971096556,4.435627808016399,-0.3435514556140049,2.6237780272487434,-16.945705042130342,0.5318271119515166,0,-0.03466304935960545,-42.0,-56.0,14.0,-0.4933785529715635,-0.4803651042952879,-2.071930949509067,-0.06662810159103882,0.00048449612403111963,0.011950904392764805,-0.0035529715762273595,0.004216672072656635
2016-06-29,1467172800,2016-07-12,1468296000,-0.25,0,58.162543730663685,64.40920788662665,61.85,62.75,61.56,62.33,3049335.0,63.16,64.21,62.85,63.6,3111817.0,0.8872259680896377,-6.690685087586516,-0.765985324947593,-5.0851677148847045,1,6.256222928888967,4.605263157894744,4.86353466456308,3.6492689092136104,-2.9466477379700393,2.6291962722530857,-16.078619706180874,0.9366134775974675,0,-0.09478482146720504,-46.0,-56.0,10.0,-2.9017295597484463,-2.813072729785347,-4.476015616995468,0.053039177567157814,-0.006918238993710801,0.00959119496855343,-0.011792452830188704,0.027131782945736482
2016-06-29,1467172800,2016-07-13,1468382400,-0.25,0,58.162543730663685,64.40920788662665,61.85,62.75,61.56,62.33,3049335.0,63.31,63.67,61.84,62.75,2979455.0,2.374930169900466,-5.425129373087742,0.7038512616201871,-3.7296148738379884,1,3.86082300258618,1.2423362374959714,5.323294186054761,3.0854621267828364,-1.6171901914215852,2.6827768672724543,-15.985500461119214,-0.9053669437602355,0,-0.04800867320834298,-46.0,-52.00000000000001,6.000000000000007,-1.525099601593638,-1.354063431358469,-3.05727835912964,0.06822043741867129,0.008924302788844596,0.014661354581673391,-0.014501992031872413,-0.013364779874213806
2016-06-29,1467172800,2016-07-14,1468468800,-0.25,0,58.162543730663685,64.40920788662665,61.85,62.75,61.56,62.33,3049335.0,63.5,63.57,62.78,63.34,2216337.0,1.6992328162052388,-6.306116302154123,-0.16471950321020756,-4.441637722345021,0,5.252957759167096,2.858070802208518,6.289293703491664,2.735601832469584,-2.53928101906709,2.560416831473572,-15.899032590704817,0.6822864169936778,0,-0.030763132854388933,42.0,40.0,2.0,-2.3034417429744423,-2.0564618205881544,-3.8049761432957183,0.10885800559305847,0.002526049889485238,0.003631196716135099,-0.008841174613198666,0.009402390438246977
2016-06-29,1467172800,2016-07-15,1468555200,-0.25,0,58.162543730663685,64.40920788662665,61.85,62.75,61.56,62.33,3049335.0,63.25,63.55,62.6,62.95,2854105.0,2.3606737561346023,-5.2709199832990095,0.6534286470744064,-3.5626158326714403,0,4.116815649420424,5.10936717315078,6.621381809686687,5.878102567566039,-1.621655035353328,2.5000549499284785,-15.951430736232519,-0.8846305321220775,0,0.049529382216590076,38.0,40.0,-2.0,-1.4551231135822036,-1.3115999414539345,-3.0831666143067764,0.10053138622370333,0.004765687053216894,0.009531374106433566,-0.005559968228753043,-0.006157246605620448
2016-06-29,1467172800,2016-07-18,1468814400,-0.25,0,58.162543730663685,64.40920788662665,61.85,62.75,61.56,62.33,3049335.0,62.81,63.1,61.93,62.31,1986183.0,3.3783572375500484,-3.960928253438354,1.8683464398437906,-2.432728828973424,1,2.2605387106164514,3.1281032770605766,6.140760797508306,9.240061060168472,-0.0366050008600638,2.4794460511657963,-16.48992302107307,-0.6289058547931535,0,0.11061433495516061,34.0,40.0,-6.0,-0.29128550794416697,-0.2695731098547043,-2.005840997466791,0.04576791052328655,0.008024394158240966,0.012678542770020895,-0.006098539560263294,-0.010166799046862574
2016-06-29,1467172800,2016-07-19,1468900800,-0.25,0,58.162543730663685,64.40920788662665,61.85,62.75,61.56,62.33,3049335.0,62.03,62.24,61.27,61.4,2327090.0,4.885922492961356,-2.6334794962186976,3.3439196525515626,-0.9866992399565646,1,-0.29145388232133485,-1.190859349855169,4.672555368808854,2.0048156482245574,1.6246366461183328,2.4574519367448002,-16.749482400822302,-0.7507958902964375,0,-0.02095252350531262,30.0,40.0,-10.0,1.1262214983713363,1.093419490440624,-0.5317792920277213,-0.05256557876222284,0.010260586319218223,0.013680781758957705,-0.002117263843648187,-0.01460439736799879
2016-06-29,1467172800,2016-07-20,1468987200,-0.25,1,58.162543730663685,64.40920788662665,61.85,62.75,61.56,62.33,3049335.0,61.02,62.02,60.57,61.46,2273589.0,4.50969932811816,-2.7752378897842505,3.082221499077974,-1.1888491159561738,1,-0.12158392913388383,-3.1057859057228425,3.5358128455838287,-5.248299980309369,1.4435686775241265,2.4482103759817067,-16.53501055691771,0.7377824264814394,0,-0.03189028240015817,26.0,40.0,-14.0,0.8672307191669404,0.8999916147924409,-0.6042224746829135,-0.11103016298464702,-0.007159127888057282,0.009111617312072884,-0.014480963228115873,0.00097719869706836
2016-07-07,1467864000,2016-07-21,1469073600,0.25,0,58.162543730663685,64.26076466784141,62.62,62.64,60.6,60.96,2287514.0,61.49,62.47,60.78,60.99,2137047.0,5.24561313555165,-2.19593286009669,3.801716128327044,-0.5760507186970614,1,-1.4731203241824176,-2.3378702962369906,2.029509274373621,-8.158279602235467,2.1477140565659454,2.488781681074021,-16.688310361769883,-0.7032787483432671,0,-0.0998179400893432,22.0,40.0,-18.0,1.5248401377274945,1.5177790334541328,0.15539668945838514,-0.17501118141231548,0.008198065256599385,0.024266273159534224,-0.0034431874077718305,-0.00764725024406121
2016-07-07,1467864000,2016-07-22,1469160000,0.25,0,58.162543730663685,64.26076466784141,62.62,62.64,60.6,60.96,2287514.0,61.52,61.52,60.02,60.61,2881667.0,5.695569043965804,-1.7869731027019924,4.317494362866412,-0.2114612550184347,1,-2.566971109170119,-3.9765525982255987,0.31651279921601017,-16.655244254857976,2.4395892729243087,2.50227488565437,-16.33116194126351,-0.9513490936326011,0,-0.13439702235309958,18.0,40.0,-21.999999999999996,1.9542979706318846,1.9490870764347932,0.7526113792175977,-0.23295332759198542,0.015014024088434219,0.015014024088434219,-0.009734367266127641,-0.006230529595015577
2016-07-07,1467864000,2016-07-25,1469419200,0.25,0,58.162543730663685,64.26076466784141,62.62,62.64,60.6,60.96,2287514.0,60.16,60.3,58.52,58.94,4600572.0,9.010700335847673,0.40226199872985546,7.149643705463177,2.453342382083477,0,-7.046044217192218,-2.6589595375722532,-3.1118673777293533,-17.970351364690174,4.757777373043837,2.6426601515507873,-15.151618803548322,-1.4966416414186419,-1,-0.189347803977692,14.0,40.0,-26.0,4.706481167288786,4.376968657675718,3.4658619297206883,-0.3658668411609992,0.02069901594842216,0.023074312860536184,-0.0071258907363419555,-0.02755320904141234
2016-07-07,1467864000,2016-07-26,1469505600,0.25,0,58.162543730663685,64.26076466784141,62.62,62.64,60.6,60.96,2287514.0,58.73,60.21,58.41,60.21,2698622.0,6.3588536006497804,-1.1138776830281358,4.911144328184662,0.3487792725460821,1,-3.036922397131505,2.5549310168625445,-4.278591375100346,-10.97064573755361,2.29100958897223,2.6156773451505977,-13.999153843470365,0.8819671709173014,0,-0.14218991517404275,10.0,40.0,-30.0,2.6224879588108365,1.9681844662607233,1.2331406107216623,-0.35034559320027236,-0.024580634446105365,0.0,-0.029895366218236297,0.021547336274177153
2016-07-07,1467864000,2016-07-27,1469592000,0.25,0,58.162543730663685,64.26076466784141,62.62,62.64,60.6,60.96,2287514.0,60.45,61.34,59.61,59.71,3615444.0,7.402540741835125,-0.6666506061794308,5.782950929492543,1.1321386702394847,0,-4.366013664976812,-2.2269526772556074,-5.799445073230625,-2.8540265248972787,2.9463145045490933,2.656134565123965,-13.881371393027154,-1.178372939369275,-1,-0.18284805072138205,6.000000000000007,40.00000000000001,-34.0,3.367945067827847,2.553280018149323,1.999245507668121,-0.35476071832038547,0.012393233964160144,0.02729860994808253,-0.0016747613465081246,-0.008304268393954484
2016-07-07,1467864000,2016-07-28,1469678400,0.25,0,58.162543730663685,64.26076466784141,62.62,62.64,60.6,60.96,2287514.0,59.68,60.41,59.32,59.8,2624739.0,7.232437754378779,-1.230765513576074,5.417224080267573,0.7901337792642238,0,-4.076044331439526,-4.059040590405906,-6.915182054915301,-8.982259471124912,2.5968061039256725,2.5928945693814804,-13.594689805480936,0.864121357063414,0,-0.20561852783405657,2.0,40.0,-38.0,3.0008361204013454,2.1704655580428494,1.7733531752509606,-0.332979134611202,-0.0020066889632106566,0.010200668896320986,-0.008026755852842737,0.0015072852118571678
2016-07-07,1467864000,2016-07-29,1469764800,0.25,0,58.162543730663685,64.26076466784141,62.62,62.64,60.6,60.96,2287514.0,59.13,61.29,59.02,61.15,3295282.0,4.745496233522857,-3.4813915728524165,3.0501499046061724,-1.6841101117470743,0,0.12426738904265733,-1.86165944471193,-6.01009306365109,-6.831641289795314,0.1593192372559855,2.619689566916438,-14.027316982919212,1.0799836603770567,0,-0.10040973102036513,-2.0,40.0,-42.0,0.6320523303352275,-0.07702918892007915,-0.45491495547102545,-0.21475060472000246,-0.03303352412101379,0.0022894521668028744,-0.034832379394930446,0.02257525083612033
2016-07-07,1467864000,2016-08-01,1470024000,0.25,0,58.162543730663685,64.26076466784141,62.62,62.64,60.6,60.96,2287514.0,60.66,60.72,58.58,58.9,3873030.0,8.552707242572552,-0.35236768399869334,6.694963214487814,1.715336728919084,0,-5.887028000770066,-6.995105005526607,-7.918763970285347,-15.445252621177147,3.3826481660177876,2.8371601033473466,-14.133222572164216,-1.269899620475093,0,-0.17371027086824914,-6.0,40.0,-46.0,4.100169779286929,3.3838658233108703,3.216457130122336,-0.2715228620258983,0.029881154499151075,0.030899830220713076,-0.005432937181663822,-0.03679476696647588
2016-07-07,1467864000,2016-08-02,1470110400,0.25,1,58.162543730663685,64.26076466784141,62.62,62.64,60.6,60.96,2287514.0,59.41,60.15,58.77,59.8,3218289.0,6.865634295167027,-2.136537305200477,4.865663322185071,0.024526198439247082,0,-3.200613295084054,-3.2675509543836996,-8.205337739513405,-7.726396482207576,1.4235217506514743,2.759691222089182,-14.23156347646315,1.0582980551859518,0,-0.13322968319188655,-10.0,-56.0,46.0,2.364548494983282,1.6538336063602515,1.5978152414079858,-0.23336163032698887,-0.006521739130434745,0.005852842809364489,-0.017224080267558395,0.015280135823429575
2016-07-08,1467950400,2016-08-03,1470196800,-0.25,0,58.51768324482434,64.27312549343662,61.88,62.05,60.93,61.66,2126288.0,59.88,61.69,59.63,61.65,3331618.0,3.6342357363568425,-5.076247090776931,1.7542579075425806,-3.124898621248988,0,1.811397382624392,-0.27499191200259093,-6.010847124416144,-6.285158285692205,-1.798351847042312,2.7243470699248395,-14.49906117021517,1.096944721883871,0,-0.07510001061591527,-14.0,-56.0,42.0,-0.7210056772100444,-1.2635957644563973,-1.3940434710896028,-0.07653974272477027,-0.02871046228710461,0.0006488240064881357,-0.03276561232765607,0.030936454849498363
2016-07-08,1467950400,2016-08-04,1470283200,-0.25,1,58.51768324482434,64.27312549343662,61.88,62.05,60.93,61.66,2126288.0,61.4,63.1,61.08,63.05,4698798.0,1.6794944024688618,-7.198923427052506,-0.42664551942901596,-5.194290245836626,0,5.175314608255746,3.428477690288708,-2.5859210448535634,2.9495905937314717,-3.918146840958329,2.702422067736788,-13.887684335506183,1.534585625583757,0,0.04784670103795907,-18.0,-56.0,38.0,-2.759714512291822,-3.126855404777757,-3.4430179035129527,0.11789198351285024,-0.026169706582077734,0.0007930214115781098,-0.031245043616177637,0.0227088402270883
2016-07-21,1469073600,2016-08-05,1470369600,0.75,1,58.51768324482434,67.74974866920579,61.49,62.47,60.78,60.99,2137047.0,65.29,67.94,64.93,67.48,9415776.0,-2.956610864187482,-14.467811186790598,-6.43548705789371,-11.170223276032402,0,13.631562349340157,9.438858254946494,5.007921570186933,14.44968362462349,-8.636004119501877,2.862266330574623,-11.448698848153091,2.9516944464629327,1,0.1827395210466388,50.0,16.0,34.0,-8.71221102548904,-8.583013261180412,-9.398291334544467,0.5188032173009178,-0.03245406046235921,0.006816834617664469,-0.03778897451096619,0.07026169706582097
2016-08-03,1470196800,2016-08-08,1470628800,0.75,1,61.249917549941024,71.15547018956286,59.88,61.69,59.63,61.65,3331618.0,68.09,68.86,67.71,67.86,4792449.0,-1.788536599063434,-15.782934075855565,-6.499656154828571,-11.23587778760195,0,14.2406865921578,9.59302325581395,10.882545846692215,20.71801590596668,-8.289088216928818,2.7881926190826514,-8.940951718255171,1.48098613285934,0,0.13991196134565823,50.0,20.0,30.0,-8.785735337459485,-8.228743324789562,-9.517183088451404,0.7684713809623623,0.003389330975537952,0.014736221632773328,-0.002210433244916099,0.005631298162418474
2016-08-05,1470369600,2016-08-09,1470715200,0.25,0,64.27312549343662,71.15547018956286,65.29,67.94,64.93,67.48,9415776.0,68.33,68.4,67.29,67.65,3239016.0,-0.3229169139242316,-16.083587151116433,-5.915496427691551,-10.629465385562952,0,13.620827965840313,6.367924528301893,15.039019201807976,19.056297684574048,-7.461914974145344,2.714272795588991,-6.927112913810799,-0.9948532524064702,0,0.1070110490695926,46.0,20.0,26.0,-8.20325203252034,-7.187307161077101,-8.874097118888528,0.8708513772619898,0.010051736881005136,0.011086474501108556,-0.005321507760532196,-0.0030946065428822944
2016-08-05,1470369600,2016-08-10,1470801600,0.25,0,64.27312549343662,71.15547018956286,65.29,67.94,64.93,67.48,9415776.0,68.01,68.01,66.76,66.93,2830509.0,1.6567736255727255,-15.463736123705118,-4.61203247173664,-9.290054285571998,0,11.479884902594762,6.661354581673318,17.36319335015089,14.092988978885188,-6.042210367505632,2.6809109838431815,-5.4561457087976315,-0.8728374245693398,0,0.09741539808697865,42.0,20.0,22.0,-6.903481249066203,-5.599457328901167,-7.584248346838123,0.8410152201333609,0.016136261766024118,0.016136261766024118,-0.002539967129837173,-0.01064301552106428
2016-08-05,1470369600,2016-08-11,1470888000,0.25,1,64.27312549343662,71.15547018956286,65.29,67.94,64.93,67.48,9415776.0,67.42,68.22,66.67,67.57,4073794.0,1.6470356357809237,-16.59153763370898,-5.144294805386977,-9.890483942578058,0,12.655739278360528,6.67824439532679,19.724919589922944,20.006059709021372,-6.275239371625446,2.629689674128538,-4.019030310983595,1.251922277275852,0,0.11793981595464245,38.0,20.0,18.0,-7.472250998964029,-5.875150215609722,-8.127830645007165,0.8147477791324746,-0.0022199200828768584,0.00961965369246709,-0.013319520497261927,0.00956222919468086
2016-08-08,1470628800,2016-08-12,1470974400,-0.25,0,64.44457868601707,71.15547018956286,68.09,68.86,67.71,67.86,4792449.0,67.85,68.43,67.36,68.26,2042247.0,1.7252080974960506,-17.762418762600078,-5.729319269459921,-10.445111827326883,0,13.906127724869421,8.435266084193808,22.16326319791993,26.77997273688591,-6.45060431014916,2.5291382807869587,-2.6104153684484963,0.6282101980475816,0,0.19467623136192283,50.0,36.0,14.0,-8.018605332552013,-6.176450058813117,-8.701354773120542,0.7934280311208168,-0.006006445941986627,0.002490477585701756,-0.0131848813360681,0.010211632381234459
2016-08-08,1470628800,2016-08-15,1471233600,-0.25,1,64.44457868601707,71.15547018956286,68.09,68.86,67.71,67.86,4792449.0,68.49,68.84,67.77,67.77,2962544.0,3.3636797055597327,-17.265111017349582,-4.636023806010542,-9.371157345924928,0,12.345674351054782,8.76263842079922,23.4765099631119,27.053829515908348,-5.115552211007596,2.4782422981141385,-1.1545411225548428,-0.9079509436349545,0,0.08891486358006032,46.0,36.0,10.0,-6.950715655894939,-4.974447985326464,-7.725892179675526,0.6992137913602834,0.010624169986719778,0.015788697063597645,0.0,-0.007178435394081584
2016-08-09,1470715200,2016-08-16,1471320000,0.25,0,64.44457868601707,70.8572502920431,68.33,68.4,67.29,67.65,3239016.0,67.5,67.96,66.49,67.56,2758837.0,4.466151315614852,-16.877341368900844,-3.880747977106779,-8.704608249457294,0,11.66638254555727,10.032573289902286,24.260444311154185,21.442492764505616,-4.176519290358726,2.4637954062648406,-0.8739391801056193,-0.842512580442412,0,0.17415432284237908,42.0,35.99999999999999,6.000000000000007,-6.205595026642996,-4.233449250998007,-7.147343809950755,0.5805248587044538,-0.000888099467140302,0.005920663114268754,-0.01583777383066909,-0.003098716246126565
2016-08-09,1470715200,2016-08-17,1471406400,0.25,1,64.44457868601707,70.8572502920431,68.33,68.4,67.29,67.65,3239016.0,67.09,67.86,66.84,67.53,3297828.0,5.202575498735399,-16.631570019689036,-3.4211955180413582,-8.183523372328338,0,11.565511645362655,9.876342336479011,24.862590909412997,26.45321372872661,-3.5381330151432593,2.3967149303106385,-0.6133802335456267,-1.0157560355703175,0,0.19941458239542822,38.0,36.0,2.0,-5.7144972604768185,-3.791771414856953,-6.827423931328525,0.4628815785755278,-0.006515622686213529,0.004886717014660036,-0.010217681030653014,-0.000444049733570151
2016-08-12,1470974400,2016-08-18,1471492800,-0.25,0,64.75357635155524,70.8572502920431,67.85,68.43,67.36,68.26,2042247.0,67.98,68.93,67.58,68.66,4303597.0,4.31746739951366,-17.732847533507268,-4.527381299155238,-9.161811826390903,0,13.906402567622415,12.575832103623535,26.29589374190412,27.0743392771068,-4.346982449321274,2.3345387938188247,0.10541388326370793,1.3228483318657582,1,0.19015591252112468,50.0,52.0,-2.0,-6.707690066996804,-4.86323786585416,-8.032973208720463,0.4250342376130627,-0.009903874162539905,0.003932420623361743,-0.015729682493445973,0.016733303716866432
2016-08-12,1470974400,2016-08-19,1471579200,-0.25,0,64.75357635155524,70.8572502920431,67.85,68.43,67.36,68.26,2042247.0,68.24,68.81,67.86,68.68,2709629.0,4.994628747051962,-17.28932880529311,-4.0322267520869985,-8.585226169675792,0,13.947312208586283,13.314634548754341,27.493297954017777,33.25483774586172,-3.5115842608057903,2.2659566484179288,0.7728655631580921,0.8379844902408665,0,0.2815209961446959,50.0,56.0,-6.0,-6.147350029120574,-4.425138201681662,-7.7436857163733634,0.3673791197282079,-0.006406523005241915,0.0018928363424577377,-0.011939429237041499,0.0002912904165455199
2016-08-12,1470974400,2016-08-22,1471838400,-0.25,0,64.75357635155524,70.8572502920431,67.85,68.43,67.36,68.26,2042247.0,67.98,68.74,67.56,68.24,2540863.0,5.953946615889578,-15.67551754203258,-2.8033411488862754,-7.29777256740914,0,12.311759340678314,15.77875805904309,27.837370245265607,28.271535722070553,-2.1593643221237784,2.2411831497796255,1.1124275703848134,-0.7888059219278704,0,0.2625102021139838,46.0,56.0,-10.0,-4.860785463071508,-3.4461364247602404,-6.8684862006716685,0.27013779087576095,-0.0038100820633057975,0.0073270808909731144,-0.009964830011723214,-0.006406523005241915
2016-08-12,1470974400,2016-08-23,1471924800,-0.25,0,64.75357635155524,70.8572502920431,67.85,68.43,67.36,68.26,2042247.0,67.91,68.75,67.89,68.27,3548814.0,6.210891149281039,-14.835470027265544,-2.278209071822644,-6.632976905424528,0,12.380814582747327,13.386480651054633,28.151590373316893,28.50961493183935,-1.5225001331114782,2.170163003863338,1.4329274179816345,1.0937591228421766,0,0.19350852279880562,42.0,56.0,-14.0,-4.312289438992252,-3.1563209405840382,-6.638453837662411,0.1825607463689234,-0.005273180020506807,0.007030906694009076,-0.005566134466090444,0.00043962485345838687
2016-08-12,1470974400,2016-08-24,1472011200,-0.25,1,64.75357635155524,70.8572502920431,67.85,68.43,67.36,68.26,2042247.0,67.94,68.41,67.78,67.91,2496646.0,6.782408088655117,-13.184999754094619,-1.2658911304177138,-5.481765081234968,0,10.96969934441654,13.733043041366596,27.84530896403631,22.824644238130887,-0.2887580527975331,2.09209812099917,1.616323357929712,-0.769187034933628,0,0.08556776461682389,38.0,56.0,-18.0,-3.201295832719765,-2.391231098344278,-5.902608969588769,0.08032703969077115,0.00044176115446914466,0.007362685907819078,-0.0019142983360329602,-0.005273180020506807
2016-08-16,1471320000,2016-08-25,1472097600,0.25,0,64.75357635155524,70.6349584737106,67.5,67.96,66.49,67.56,2758837.0,67.89,68.0,67.36,67.55,2078321.0,7.130596595645571,-11.354134715556711,-0.19615099925981383,-4.367875647668384,0,9.551680965713999,12.959866220735785,26.997098245355396,13.611826284215702,0.5341937268332941,2.020690477066403,1.3449795114282956,-0.641359085636524,0,-0.06908176361532155,34.0,56.0,-21.999999999999996,-2.111769059955577,-1.6928423910913608,-5.189318756219464,-0.0259170006243159,0.005033308660251645,0.006661732050333047,-0.0028127313101405926,-0.005301133853629847
2016-08-16,1471320000,2016-08-26,1472184000,0.25,1,64.75357635155524,70.6349584737106,67.5,67.96,66.49,67.56,2758837.0,67.91,68.49,67.3,67.5,1773511.0,7.070365765747539,-10.20814354352531,0.3367901234567938,-3.6780246913580186,0,9.349876151905839,10.38430089942764,26.192011908685792,10.890320685009662,0.558530564424828,2.00367126183689,1.4061524175682294,-0.5524625906957429,0,-0.016043829999102654,30.0,56.0,-26.0,-1.5688888888888926,-1.465734438692209,-4.918340048554427,-0.10926260634633822,0.006074074074074121,0.014666666666666606,-0.002962962962963056,-0.0007401924500369805
2016-08-18,1471492800,2016-08-29,1472443200,-0.25,1,65.29279111814074,70.6349584737106,67.98,68.93,67.58,68.66,4303597.0,67.35,68.36,67.07,68.22,2593116.0,5.012584784461566,-8.861895836938814,-0.1627088830254877,-4.010554089709757,0,11.335899259585354,15.823429541595926,26.23868526167709,18.346706910998577,-0.4906606067185493,1.975982673976915,1.209368478877792,0.8144640689572267,0,0.06288440917865469,26.0,56.0,-30.0,-1.9246555262386238,-2.267038305777362,-5.689611381457254,-0.12449816978675354,-0.012752858399296407,0.0020521841102316696,-0.016857226619759635,0.010666666666666602
2016-08-25,1472097600,2016-08-30,1472529600,0.25,0,65.29279111814074,70.17617635354247,67.89,68.0,67.36,67.55,2078321.0,68.31,68.63,67.09,67.42,1716866.0,4.892277870915592,-5.283853071152919,1.6374962919015132,-2.2797389498664984,0,8.02048598779453,12.74247491638797,24.853190854528158,20.262283265349225,0.7492193641398046,2.0197694561206574,1.2125060971047041,-0.5449633781737874,0,0.09243904028179603,22.0,56.0,-34.0,-0.19578760011866336,-1.0018856289517686,-4.3912957502887195,-0.19296409731523956,0.013200830614061188,0.017947196677543742,-0.004894690002966495,-0.011726766344180573
2016-08-25,1472097600,2016-08-31,1472616000,0.25,0,65.29279111814074,70.17617635354247,67.89,68.0,67.36,67.55,2078321.0,67.18,67.29,65.88,66.23,3122577.0,5.459736477792077,-1.5732801891011832,3.828073883939794,-0.06140218430721234,0,3.4930370648772566,7.429034874290358,21.58120922857171,11.422947668474194,2.4493096832980683,2.075286488116641,-0.058409143951831055,-0.9958534672823626,0,0.036002801485067897,18.0,56.0,-38.0,1.94322814434544,0.7028929107262059,-2.5685880205755893,-0.31565377343348433,0.01434395289143886,0.01600483164728983,-0.005284614223161843,-0.017650548798576082
2016-08-25,1472097600,2016-09-01,1472702400,0.25,0,65.29279111814074,70.17617635354247,67.89,68.0,67.36,67.55,2078321.0,66.1,66.34,65.45,66.28,2553385.0,4.039214133490461,0.18076172649745104,3.937085093542535,0.22103198551599235,1,3.6529904194366623,5.122918318794614,18.94836663305074,5.389405060270448,2.1756388393761483,2.0215114593968733,-1.635717564282288,0.814208494261681,0,0.056737828461405695,14.0,56.0,-42.0,2.109987929993977,0.5672179728644267,-2.53847658937525,-0.3860449071882519,-0.0027157513578758286,0.0009052504526252392,-0.012522631261315587,0.000754944889023168
2016-08-25,1472097600,2016-09-02,1472788800,0.25,1,65.29279111814074,70.17617635354247,67.89,68.0,67.36,67.55,2078321.0,66.82,66.99,66.38,66.55,2101628.0,3.6824308589283703,-0.4307404006263198,3.3243175557225157,-0.016028049085903717,1,4.54169770390768,-1.3781861292234836,17.090611353993516,4.3055236081552835,1.6223007486843244,1.9457069162549336,-2.565700945192031,0.6720099872604387,0,0.11209432552557011,10.0,56.0,-46.0,1.6258452291510395,0.14404417558418459,-2.8188333079494186,-0.40504654776125504,0.004057099924868357,0.006611570247933907,-0.0025544703230654386,0.004073627036813354
2016-08-29,1472443200,2016-09-06,1473134400,-0.25,1,65.298637248036,70.51831367597458,67.35,68.36,67.07,68.22,2593116.0,67.55,71.25,67.41,70.98,8031006.0,-1.6767749123817026,-7.317307927854955,-2.8125293509909,-6.32337747722363,0,15.85091308144743,4.597701149425294,20.971107632473267,16.550986447993893,-4.0996246487245,2.166936701080743,-1.1733200964150754,2.5255060829273313,1,0.22997389892866252,50.0,96.0,-46.0,-4.497041420118336,-5.524603404166555,-8.535703091055098,-0.12443748769396423,-0.04832347140039461,0.0038038884192730382,-0.050295857988165826,0.0665664913598798
2016-08-30,1472529600,2016-09-07,1473220800,0.75,0,65.298637248036,73.19583832511704,68.31,68.63,67.09,67.42,1716866.0,70.94,71.22,70.39,70.6,4583909.0,-0.45287757498100234,-7.095281065245601,-2.0998583569405156,-5.589943342776209,0,14.404176186063069,4.360679970436051,23.221415870993145,17.6801152868438,-3.121496482154285,2.1069599064703,0.11960497744923515,-1.4407505926540238,0,0.14563145929489738,46.0,92.0,-46.0,-3.7740793201133016,-4.538372212954997,-7.727974799964272,0.022572419740222394,0.004815864022662986,0.008781869688385235,-0.0029745042492916873,-0.005353620738236309
2016-08-30,1472529600,2016-09-08,1473307200,0.75,1,65.298637248036,73.19583832511704,68.31,68.63,67.09,67.42,1716866.0,71.24,71.8,70.48,71.43,3837648.0,-0.7341542444688542,-8.42026266719293,-2.95230762051429,-6.411638433897991,0,16.115753340229503,6.723442402510084,25.826302093347643,17.454429646357852,-3.8970353446691632,2.065726487628688,1.5387519735374156,1.2022366208536162,0,0.12667743004837664,50.0,96.0,-46.0,-4.577208455830899,-5.1097461293826285,-8.45505019942641,0.1553063903884726,-0.0026599468010641836,0.005179896402071726,-0.013299734005319919,0.011756373937677145
2016-09-06,1473134400,2016-09-09,1473393600,0.25,0,67.74974866920579,73.19583832511704,67.55,71.25,67.41,70.98,8031006.0,70.63,71.01,69.32,69.35,3426545.0,2.418841676228439,-5.592597984808094,0.1420331651045501,-3.4412400865176664,0,8.67355146693933,2.6343051650140614,24.241715737568967,10.185858040403552,-0.8586100511262629,2.193030136107864,1.8009628365789396,-1.0709175912092113,0,0.005885270420955993,46.0,20.0,26.0,-1.5868781542898347,-2.048130019853872,-5.485465188375613,0.08607096996794139,0.018457101658255315,0.023936553713049813,-0.00043258832011539017,-0.029119417611647935
2016-09-06,1473134400,2016-09-12,1473652800,0.25,1,67.74974866920579,73.19583832511704,67.55,71.25,67.41,70.98,8031006.0,68.9,70.0,68.37,69.59,2900688.0,2.248596547385162,-5.910042157386599,-0.06945442352828479,-3.7208411170187503,0,9.230931726266654,1.9484324641078206,23.288601415580082,9.642001575434989,-1.1010116375476429,2.1966685681522833,1.2773222239722557,0.9123874494952124,0,0.029380126529177073,42.0,20.0,22.0,-1.8307228050007183,-2.1587108989800754,-5.583525221924106,0.04173529007342114,-0.00991521770369308,0.005891651099295903,-0.017531254490587678,0.0034607065609228993
2016-09-07,1473220800,2016-09-13,1473739200,-0.75,0,64.89399110250642,73.19583832511704,70.94,71.22,70.39,70.6,4583909.0,68.57,68.96,67.01,67.66,4202059.0,5.163953370120026,-3.2411038282932196,2.827618484579773,-1.0579860084737476,0,3.1615607558665957,-0.16231370813044038,19.478070248305386,1.0644156658436614,1.6506723377403176,2.37031813853968,-0.1716234651445241,-1.3112789381733048,0,0.007203278799406267,38.0,20.0,18.0,0.9614247709134105,0.5719992555632416,-2.7769523770789277,-0.12324901889880757,0.01344960094590597,0.019213715637008466,-0.009606857818504122,-0.027733869808880707
2016-09-07,1473220800,2016-09-14,1473825600,-0.75,1,64.89399110250642,73.19583832511704,70.94,71.22,70.39,70.6,4583909.0,67.27,67.98,65.99,66.2,3884367.0,7.577824783471044,-1.4071299194226867,5.088368580060404,1.0385196374622438,0,-0.8489514928687925,-2.0130254588513905,14.427384706781412,-0.35518662727290007,3.694992181169269,2.4642689127068755,-1.7408434490348164,-1.2054226007225348,0,-0.02715718102597471,34.0,-16.0,50.0,3.0853474320241787,2.524333134079086,-0.6079442254087155,-0.3249295896855331,0.01616314199395763,0.026888217522658575,-0.003172205438066622,-0.02157848063848644
2016-09-09,1473393600,2016-09-15,1473912000,-0.25,0,64.89399110250642,70.88671821942539,70.63,71.01,69.32,69.35,3426545.0,66.46,69.15,66.23,68.07,4156523.0,4.6377467933093754,-4.0515854887699305,2.3708437392879915,-1.846873316683812,0,3.845465310591159,0.799644602398922,12.625916099442886,5.956887524184474,0.8057536319146692,2.5349428385438704,-2.919402181372302,1.2758061873369382,0,0.013400010354315359,30.0,-16.0,46.0,0.29308065226972246,-0.264359366727021,-3.207496745962416,-0.3257848368966805,-0.023652122814749488,0.01586602027324835,-0.027030997502570764,0.028247734138972636
2016-09-09,1473393600,2016-09-16,1473998400,-0.25,1,64.89399110250642,70.88671821942539,70.63,71.01,69.32,69.35,3426545.0,67.02,68.46,66.82,68.09,5509199.0,4.5583706983439924,-4.114840077107402,2.318010476330329,-1.9410584030939475,0,3.8933865070944265,-0.8301776871540828,11.291544044738332,-1.3030716290283522,0.691082592190881,2.5252252976689005,-4.013778147114255,1.6582027239099908,0,0.09228054406148983,26.0,-16.0,42.0,0.22176531061830929,-0.26568750027560384,-3.109028382672733,-0.3180419769715457,-0.01571449552063453,0.005433984432368755,-0.018651784402996197,0.0002938151902454056
2016-09-13,1473739200,2016-09-19,1474257600,0.25,0,64.72942800126566,70.88671821942539,68.57,68.96,67.01,67.66,4202059.0,68.61,68.76,67.38,67.4,3929836.0,5.555504924005646,-3.249866941809856,3.3526211671612174,-1.0138476755687407,0,1.9351282158907068,-1.8637157833430416,9.35053183891285,-0.04627791236346468,1.6930413875184058,2.5151056345247795,-4.849790667294162,-1.1701294236206905,0,-0.01835634460661175,22.0,-16.0,38.0,1.152818991097888,0.6833950996315394,-2.034093613263849,-0.3499015428898953,0.017952522255192838,0.020178041543026604,-0.00029673590504464276,-0.010133646644147398
2016-09-13,1473739200,2016-09-20,1474344000,0.25,1,64.72942800126566,70.88671821942539,68.57,68.96,67.01,67.66,4202059.0,67.48,68.75,67.39,67.66,3192398.0,5.119281156669771,-3.676774505768222,2.9505369987191017,-1.4257562321411115,0,2.6180145267173742,-0.8499413833528698,8.109272587407549,4.339514191040877,1.2884208266494,2.470055695463253,-5.626088007461217,0.9426567908315497,0,-0.034893369842718285,18.0,-16.0,34.0,0.7212533254507889,0.2682570869671679,-2.316019998251093,-0.34348873398874924,-0.002660360626662639,0.01610996157256883,-0.0039905409399940694,0.0038575667655784684
2016-09-15,1473912000,2016-09-21,1474430400,-0.25,0,64.72942800126566,70.90068334243401,66.46,69.15,66.23,68.07,4156523.0,68.53,70.2,68.19,70.0,3358540.0,1.8828401746299193,-6.927125888915654,-0.3259523809524012,-4.720238095238102,0,8.238976610922514,2.5340559542991126,9.655511297620741,10.073575630650765,-1.8517332558682682,2.4761342740975194,-5.493602780526178,0.9902726048104603,0,0.04182556168978915,14.0,-16.0,30.0,-2.5221428571428675,-2.7898944111702377,-5.362575277591532,-0.17990009100299154,-0.02100000000000002,0.0028571428571428914,-0.025857142857142912,0.03458468814661542
2016-09-15,1473912000,2016-09-22,1474516800,-0.25,1,64.72942800126566,70.90068334243401,66.46,69.15,66.23,68.07,4156523.0,70.81,71.11,69.18,69.32,3179208.0,3.0292886435833566,-5.957736422002284,0.8780534718215307,-3.7468743989228557,0,6.19958803312565,2.0762774260050016,9.984372889205169,14.971884679877718,-0.6185368162314404,2.5206930482119594,-4.910725043354066,-0.9362932778405437,0,-0.04616425541387555,10.0,-16.0,26.0,-1.464223889209464,-1.6614181070923024,-4.260330946601414,-0.11869158322954254,0.02149451817657244,0.02582227351413735,-0.002019619157530128,-0.009714285714285786
2016-09-19,1474257600,2016-09-23,1474603200,0.25,0,64.55033562479396,70.90068334243401,68.61,68.76,67.38,67.4,3929836.0,69.05,69.13,66.91,67.18,3896111.0,6.316517658461635,-3.022382499188055,4.216780787932905,-0.7906619033442723,0,0.35793912601116773,-0.5477424130273728,7.570700258975907,9.461312869549083,2.553533766563149,2.671445314641569,-6.011195885141063,-1.1361834881723198,0,-0.07948159002945565,6.000000000000007,-15.999999999999993,22.0,1.647067579636797,1.3310221576084587,-1.1630973619897986,-0.21776487894087038,0.027835665376600094,0.02902649598094653,-0.004019053289669672,-0.030871321407962893
2016-09-19,1474257600,2016-09-26,1474862400,0.25,0,64.55033562479396,70.90068334243401,68.61,68.76,67.38,67.4,3929836.0,67.53,67.83,66.62,66.81,2324924.0,6.926474328191929,-2.6097552741581325,4.744798682831913,-0.2933692560993819,0,-0.5770262708711087,-1.0222222222222188,5.273082600568257,0.5575258231505842,2.775388144784756,2.623730462814664,-7.213789822031696,-0.6800931326870734,0,-0.2503411318308427,2.0,-16.0,18.0,2.1583595270169127,1.711993002483652,-0.5915831427563631,-0.298652522864189,0.010776829815895894,0.01526717557251911,-0.002843885645861355,-0.00550759154510283
2016-09-19,1474257600,2016-09-27,1474948800,0.25,1,64.55033562479396,70.90068334243401,68.61,68.76,67.38,67.4,3929836.0,65.98,66.61,65.25,66.28,3097512.0,7.807286784004049,-2.1494714550963607,5.449104807885746,0.3600885133775904,0,-1.9229364075126938,-2.8437408384637903,2.853675010614045,-7.027773392182489,3.075252947725616,2.6239208324730803,-7.838994291710257,-0.9002395299235061,0,-0.1818372767382161,-2.0,-16.0,14.0,2.8289076644538227,2.284813918888659,0.19535073466990127,-0.37343162530647833,-0.004526252263126085,0.0049788774894388155,-0.015540132770066384,-0.007932944170034428
2016-09-21,1474430400,2016-09-28,1475035200,-0.25,0,64.55033562479396,71.26745077347526,68.53,70.2,68.19,70.0,3358540.0,66.95,70.79,66.29,70.33,4757790.0,1.9656235813783667,-7.736987153111627,-0.31162614341911876,-5.5284610645054215,0,7.40704028738444,4.3162266389795265,5.257915943176669,-6.130922611078262,-3.060888094805108,2.7542352847718976,-7.649311235978114,1.3635065176338894,0,-0.13810220977141288,-6.0,-16.0,10.0,-2.8856817858666233,-3.2619610514141613,-5.355858937278285,-0.14732594167750057,-0.04805914972273562,0.006540594340964212,-0.057443480733683994,0.061104405552202756
2016-09-21,1474430400,2016-09-29,1475121600,-0.25,1,64.55033562479396,71.26745077347526,68.53,70.2,68.19,70.0,3358540.0,70.57,71.81,69.71,71.14,4732094.0,1.2544905922588896,-8.547152948176759,-1.0875269421797213,-6.341954830849971,0,8.959568918358237,7.413558810206849,7.8551288424941985,1.9534588485481876,-3.9809675978114143,2.739236293138378,-7.100822979852179,1.337298100399566,0,-0.04025513036560463,-10.0,-16.000000000000007,6.000000000000007,-3.646331177958956,-3.947856469585929,-6.181183855606534,0.04908221804902857,-0.008012369974697897,0.009418048917627209,-0.020101208883890997,0.01151713351343675
2016-09-23,1474603200,2016-09-30,1475208000,0.75,0,64.55033562479396,74.76626571312985,69.05,69.13,66.91,67.18,3896111.0,71.52,72.75,70.87,72.38,4715615.0,0.23740231886375796,-9.98871483613371,-2.3008197476282533,-7.602007921156854,0,11.236440364301494,9.203379601689791,10.992892326807887,9.057036769259497,-5.261921648513919,2.6855292588917954,-6.266934423084248,1.3134979799503732,0,-0.013113040804206937,50.0,48.0,2.0,-4.875656258634976,-5.06069795371026,-7.483039284740258,0.24391023198654027,-0.011881735285990569,0.005111909367228495,-0.020862116606797376,0.017430418892324884
2016-09-23,1474603200,2016-10-03,1475467200,0.75,1,64.55033562479396,74.76626571312985,69.05,69.13,66.91,67.18,3896111.0,72.06,72.38,71.15,71.94,2511102.0,1.3290138118965587,-9.167490320097855,-1.299925864146033,-6.719720137151313,0,9.993253542026494,8.099173553719009,12.899757081455837,10.748124647119745,-4.393085735980236,2.6310833441177617,-5.492609334656883,-0.70089488331847,0,0.026196666320978963,46.0,48.0,-2.0,-3.919238254100648,-4.053359969221333,-6.645924105612366,0.3197650387570381,0.0016680567139284452,0.006116207951070374,-0.010981373366694358,-0.006079027355623046
2016-09-28,1475035200,2016-10-04,1475553600,0.25,1,67.78075415707113,74.76626571312985,66.95,70.79,66.29,70.33,4757790.0,72.09,72.13,70.73,71.21,1855569.0,2.417501931484466,-8.253760883878812,-0.35575527781675476,-5.488461358423436,0,7.939045728449095,0.32403493941954037,13.549870170528525,12.926392880093836,-3.062865418988352,2.6086241550001126,-5.055435057592366,-0.5259835032535611,0,0.07568313404806644,42.0,48.0,-6.0,-2.91812947619718,-2.777415964538065,-5.465822223616385,0.2978373781420012,0.012357814913635856,0.012919533773346537,-0.006740626316528386,-0.010147345009730357
2016-09-30,1475208000,2016-10-05,1475640000,-0.25,0,67.92376850407922,74.76626571312985,71.52,72.75,70.87,72.38,4715615.0,72.13,73.59,71.92,72.89,3498047.0,0.6208110238213038,-10.618067163209417,-2.4532400420725082,-7.582887455983908,0,11.160681089261331,3.243626062322955,15.516452951798001,12.638700109921693,-4.802423492537059,2.5996919418774427,-4.105858772645028,0.9870901573065901,0,0.06645715152312082,50.0,60.0,-10.0,-4.998628069694064,-4.540315822185008,-7.344894893095017,0.3688927837035483,-0.010426670325147547,0.00960351214158317,-0.013307723967622476,0.02359219210785013
2016-09-30,1475208000,2016-10-06,1475726400,-0.25,0,67.92376850407922,74.76626571312985,71.52,72.75,70.87,72.38,4715615.0,73.01,73.4,72.15,72.71,1916045.0,1.1929749901471496,-10.543820816030816,-2.1122724980515954,-7.244991518819049,0,10.636871235249046,1.7919641607167671,16.850684285934907,17.11679836977136,-4.1199565197257755,2.542772750225758,-3.224109365193925,-0.5459114913402351,0,0.002924050421694837,46.0,60.0,-14.0,-4.675422912941826,-3.894092504012832,-6.8364790691808395,0.37496169601596785,0.004125979920231115,0.009489753816531499,-0.007701829184431186,-0.0024694745506929072
2016-09-30,1475208000,2016-10-07,1475812800,-0.25,0,67.92376850407922,74.76626571312985,71.52,72.75,70.87,72.38,4715615.0,72.51,72.85,71.89,72.18,1962319.0,2.381099835211245,-9.939980411548206,-1.276900341738255,-6.346171608017002,0,9.068893308948311,4.080749819754885,17.287711504916857,11.30910856479607,-3.0333260922912757,2.47348403465136,-2.6023250220044822,-0.5612140877368722,0,0.07059325096537915,42.0,60.0,-18.0,-3.779440288168473,-2.8847523079659823,-5.91113155642671,0.31678939505724935,0.004571903574397407,0.009282349681352109,-0.004017733444167448,-0.0072892311924079856
2016-09-30,1475208000,2016-10-10,1476072000,-0.25,0,67.92376850407922,74.76626571312985,71.52,72.75,70.87,72.38,4715615.0,72.85,73.43,72.7,72.82,2104252.0,2.0280424472200167,-10.834688972899741,-1.954820104366945,-6.855946168634958,0,10.371436082165943,4.641471475786736,18.18135779826843,10.515568029356722,-3.4831953564272737,2.3992319702934415,-1.7897377540752117,0.6059342400272145,0,0.0840118924437436,38.0,60.0,-21.999999999999996,-4.403323262839862,-3.382251742843195,-6.473821647629947,0.29534607387614087,0.00041197473221643577,0.008376819555067527,-0.001647898928865521,0.008866722083679557
2016-09-30,1475208000,2016-10-11,1476158400,-0.25,0,67.92376850407922,74.76626571312985,71.52,72.75,70.87,72.38,4715615.0,72.41,72.65,71.64,71.89,2512216.0,3.6561141255243115,-9.40100214889334,-0.46088932164882124,-5.294663142764406,0,7.569179392011613,6.251847472657411,17.766438473977335,3.868284594522237,-2.001471352363538,2.373921404723475,-1.8500567614688954,-0.7291245951703827,0,-0.0062659552982775365,34.0,60.0,-26.0,-2.8724440116845216,-1.9292807572170574,-5.057498227586336,0.19718097435231363,0.00723327305605781,0.010571706774238576,-0.00347753512310478,-0.012771216698709065
2016-09-30,1475208000,2016-10-12,1476244800,-0.25,0,67.92376850407922,74.76626571312985,71.52,72.75,70.87,72.38,4715615.0,71.76,72.42,71.22,72.08,2747872.0,3.4948141691756263,-8.935990639763858,-0.4185164631890501,-5.12994820569736,0,7.988543438424649,8.882175226586094,17.593630625208455,-3.0739501784068892,-2.069508368474402,2.317460487565818,-2.2129548279771036,0.7997030926139539,0,0.08535691709575223,30.0,60.0,-30.0,-2.720588235294116,-1.9794301827931662,-5.099615305292033,0.12710049538791823,-0.004439511653718031,0.004716981132075526,-0.011931187569367396,0.0026429266935594775
2016-09-30,1475208000,2016-10-13,1476331200,-0.25,1,67.92376850407922,74.76626571312985,71.52,72.75,70.87,72.38,4715615.0,71.55,71.93,70.47,71.6,2383476.0,4.352669110965792,-7.996523859569123,0.39269087523277335,-4.146415270018622,0,6.503466723794794,5.185838107830177,16.846964498815602,-1.5625130955327151,-0.9757429608360297,2.326968450986307,-3.083360329677639,-0.6975035664344174,0,0.19196345505831378,26.0,60.0,-34.0,-1.8219273743016515,-1.1963748496534237,-4.288375859641519,0.03524912451386819,-0.0006983240223463749,0.004608938547486119,-0.015782122905027895,-0.006659267480577213
2016-10-04,1475553600,2016-10-14,1476417600,0.25,0,67.92376850407922,74.6782985950573,72.09,72.13,70.73,71.21,1855569.0,72.18,72.18,70.41,70.84,2743049.0,5.506333453032511,-6.655401776013875,1.7156032373423642,-2.8905514775079837,0,4.190452949612329,4.038772213247173,15.263756826956175,-2.204807049942147,0.41059456360790136,2.3624084800536975,-3.7498244889137666,-0.8120244516887297,0,0.19447326160030115,22.0,60.0,-38.0,-0.5745341614906749,-0.12338223324765352,-3.1336394265913583,-0.08338210475236552,0.01891586674195378,0.01891586674195378,-0.006070016939582201,-0.010614525139664654
2016-10-04,1475553600,2016-10-17,1476676800,0.25,0,67.92376850407922,74.6782985950573,72.09,72.13,70.73,71.21,1855569.0,70.82,71.19,69.77,70.32,2255839.0,6.168139198449211,-5.4315066614753675,2.6540576412590156,-1.9918467956010346,0,2.6385200457093774,4.332344213649833,13.293549254789031,-1.4537625511664558,1.6479128476932061,2.3541252411943883,-4.832516666171124,-0.697357491116945,0,0.1468268859070243,18.0,60.0,-42.0,0.36831626848692167,0.5565932941505451,-2.3225378192706927,-0.19707330138035561,0.0071103526734925815,0.012372013651877234,-0.007821387940841862,-0.007340485601355362
2016-10-04,1475553600,2016-10-18,1476763200,0.25,1,67.92376850407922,74.6782985950573,72.09,72.13,70.73,71.21,1855569.0,71.2,71.35,69.69,69.83,2895532.0,6.773293234631382,-4.3173287494530825,3.564609289226212,-1.1568571292185794,0,1.1845411414312679,3.20721253325451,11.034867545942358,-11.08413120465373,2.6451780937089495,2.3711126311759805,-5.735306306996218,-0.905731075084242,0,-0.005589399741256371,14.0,60.0,-46.0,1.2279822425891496,1.1419932546719878,-1.5729298079943703,-0.29934460102980354,0.019619074896176425,0.021767148789918256,-0.0020048689674925235,-0.006968145620022681
2016-10-05,1475640000,2016-10-19,1476849600,-0.25,1,68.25509647238918,74.6782985950573,72.13,73.59,71.92,72.89,3498047.0,70.67,72.11,70.48,71.27,3369569.0,4.697292551091408,-6.153725832977187,1.5733595248117638,-2.999391983536782,0,5.027325035845571,1.8142857142857085,10.662624200003929,-13.248205685262242,0.6620477814585115,2.3857687420626226,-6.09444248225034,1.05315110892775,0,-0.054255522803428706,10.0,24.0,-14.0,-0.7282166409428754,-0.8157025994366336,-3.421962527510715,-0.2652465419053004,-0.008418689490669151,0.0117861652869371,-0.011084607829381143,0.020621509379922687
2016-10-14,1476417600,2016-10-20,1476936000,0.25,0,68.25509647238918,74.32805806191772,72.18,72.18,70.41,70.84,2743049.0,70.46,71.6,70.31,71.16,2595550.0,4.913409535966736,-5.804359507861065,1.766441821247895,-2.7234401349072357,0,4.68119984423479,2.6543566070398206,10.215363824213327,-24.400609416489857,0.6951219131191948,2.348268085208825,-6.568072514293874,-0.8124264604670476,0,-0.1150624558861223,6.000000000000007,24.000000000000007,-18.0,-0.44547498594717183,-0.5992982688074733,-3.144330973957807,-0.24577511561297016,-0.00983698707138847,0.006183249016301184,-0.011944912872400182,-0.0015434264066227499
2016-10-14,1476417600,2016-10-21,1477022400,0.25,0,68.25509647238918,74.32805806191772,72.18,72.18,70.41,70.84,2743049.0,70.62,71.24,70.21,70.39,2900087.0,5.750936987459681,-4.007791654315753,2.9992423166169715,-1.3706965951602967,0,2.259104654975445,4.778207799940449,8.831908138377432,-24.645137900808678,1.6597511862616017,2.3089073531802202,-7.094188400515172,-0.9144679338983125,0,-0.1865870599866752,2.0,23.999999999999996,-21.999999999999996,0.8715726665719643,0.4415702775973074,-2.003063885866979,-0.2780515906721337,0.0032675095894303396,0.012075578917459806,-0.0025571814178151353,-0.01082068577852724
2016-10-14,1476417600,2016-10-24,1477281600,0.25,0,68.25509647238918,74.32805806191772,72.18,72.18,70.41,70.84,2743049.0,70.47,70.98,69.19,70.2,2789780.0,5.488377447053509,-2.716297674973717,3.5356125356125148,-0.9287749287749563,0,1.6646943817560071,5.074090704984284,7.438054307430993,-25.256801709835557,1.793934934664179,2.3319208909998217,-8.32484455916293,-0.8755578072591262,0,-0.1561577358882426,-2.0,24.0,-26.0,1.386039886039896,0.6454758546746717,-1.6696798165975935,-0.30342268078458035,0.0038461538461538325,0.011111111111111072,-0.01438746438746441,-0.0026992470521380874
2016-10-14,1476417600,2016-10-25,1477368000,0.25,0,68.25509647238918,74.32805806191772,72.18,72.18,70.41,70.84,2743049.0,70.09,70.62,69.41,69.48,1540305.0,5.536848022477386,-0.20293898390512766,4.870466321243526,0.3814047207829674,1,-0.5776535133012288,4.828002414001211,5.317430524049516,-34.080572717261816,2.5507462776850502,2.3121874795690824,-9.467596706478703,-0.4877710899447287,0,-0.2204901466484133,-6.0,24.0,-30.0,2.666954519286108,1.527630900954776,-0.6251946202976768,-0.35626741508226745,0.008779504893494439,0.016407599309153698,-0.001007484168106032,-0.01025641025641022
2016-10-14,1476417600,2016-10-26,1477454400,0.25,0,68.25509647238918,74.32805806191772,72.18,72.18,70.41,70.84,2743049.0,68.81,69.81,67.77,69.09,3409779.0,6.316460892381826,-0.002956767327560783,5.266560524919186,1.1082163361798507,1,-1.7711591057109715,-1.7631167353902955,3.037903656470457,-34.672347796855874,2.69269074935994,2.3700558474928957,-9.36035382187787,-1.0753473718550839,0,-0.17819480431376172,-10.0,24.0,-34.0,3.1567520625271186,1.900665181349666,-0.06172329604065396,-0.4016900544443923,-0.004052684903748771,0.010421189752496618,-0.019105514546244096,-0.005613126079447306
2016-10-14,1476417600,2016-10-27,1477540800,0.25,1,68.25509647238918,74.32805806191772,72.18,72.18,70.41,70.84,2743049.0,69.36,69.65,68.46,68.79,3713140.0,6.978223366515593,-0.10658504699242144,5.519939913747123,1.4757474439114162,0,-2.6961357340971333,-3.3033455158841636,0.7371784760397422,-25.781008216416268,2.7565481813989408,2.333928374704271,-9.260771143319955,-1.167959278013356,0,-0.19307905915772872,-14.0,24.0,-38.0,3.4358191597615644,2.1217246348164593,0.35944615078886955,-0.4334204160468331,0.008286088094199728,0.012501817124582093,-0.004797208896642147,-0.004342162396873572
2016-10-19,1476849600,2016-10-28,1477627200,-0.75,0,65.24696412723281,74.32805806191772,70.67,72.11,70.48,71.27,3369569.0,68.72,70.55,67.99,68.08,3415452.0,8.178673231480872,0.21880032903621327,6.440707011359208,2.2544555424990307,0,-4.853206221131998,-5.940867642995299,-2.1358649968539063,-32.05066280987967,3.4158030494053264,2.458412505924531,-9.961384307746558,-1.0803584946516331,0,-0.23152141641453036,-18.0,24.0,-42.0,4.198736780258528,2.883243323646866,1.3509448903612764,-0.4800827545910158,0.009400705052879044,0.03628084606345472,-0.0013219741480611225,-0.010321267626108521
2016-10-19,1476849600,2016-10-31,1477886400,-0.75,1,65.24696412723281,74.32805806191772,70.67,72.11,70.48,71.27,3369569.0,67.98,68.4,67.62,67.8,2653658.0,8.733665067028596,-0.0861724416598122,6.560717797443445,2.423549655850522,0,-5.691944540433731,-5.754795663052545,-4.900144471887225,-32.04585267775951,3.4425064055038774,2.374413615932835,-10.341102731608817,-0.8396889960687554,0,-0.2347589502048039,-21.999999999999996,24.000000000000004,-46.0,4.323746312684392,2.9930698862225853,1.7001110760177056,-0.505122248959406,0.0026548672566373277,0.00884955752212413,-0.0026548672566371057,-0.004112808460634554
2016-10-20,1476936000,2016-11-01,1477972800,-0.25,1,65.24696412723281,71.26745077347526,70.46,71.6,70.31,71.16,2595550.0,68.47,69.15,67.41,68.35,2777315.0,7.889227171157472,-1.3391174418231628,5.504754937820053,1.3511338697878443,0,-3.6317757605688925,-4.016289846931611,-6.384018043063307,-25.11206495419927,2.2408437234241205,2.3689081002019043,-11.327561871537172,0.8775043137383663,0,-0.2591075499213303,-26.0,-72.0,46.0,3.2750548646671547,1.9581792785257761,0.8471704223492367,-0.4611764150821358,0.0017556693489393371,0.0117044623262621,-0.013752743233357734,0.008112094395280156
2016-10-28,1477627200,2016-11-02,1478059200,0.25,1,65.24696412723281,71.17406878417138,68.72,70.55,67.99,68.08,3415452.0,67.41,68.82,66.69,68.19,3604577.0,7.767493068205965,-1.4219878621640163,5.426748790145197,1.195923155887968,0,-4.151140716496634,-6.448072437920158,-7.839856853099149,-25.769019451288315,2.098353402076313,2.4279778061659667,-11.697072235207644,-1.1384800421905468,0,-0.24723762507483119,-30.0,-72.0,42.0,3.1727526030209674,1.9881350568492024,1.041294888276667,-0.4205550541314665,-0.011438627364716236,0.0092388913330399,-0.021997360316762027,-0.0023408924652523755
2016-11-01,1477972800,2016-11-03,1478145600,-0.25,0,65.27945262964874,71.24802477313405,68.47,69.15,67.41,68.35,2777315.0,68.14,69.64,67.92,69.04,4329908.0,5.961810775225018,-2.6883461170558576,3.881324835843955,-0.365488605639257,0,-0.9592325015681453,-5.04744876908264,-7.688400971982295,-16.45706848271257,0.5862275857629697,2.4047441295231997,-12.584331199961222,1.3519148960670082,0,-0.17359016535843377,-34.0,-72.0,38.0,1.6367323290845945,0.6627266877754465,-0.19474671598514703,-0.3187324767763448,-0.013035921205098555,0.008690614136732222,-0.016222479721900385,0.012465170846165163
2016-11-01,1477972800,2016-11-04,1478232000,-0.25,0,65.27945262964874,71.24802477313405,68.47,69.15,67.41,68.35,2777315.0,71.13,71.98,68.61,68.83,7215561.0,5.903020856842261,-2.4960762106124434,4.191728412998202,-0.41818005714563355,0,-1.6996385020368834,-4.641174840676099,-7.858475497437338,-4.622890708047613,0.9053169477827794,2.5895124127038285,-11.92198036107508,-2.182868349044992,-1,-0.27746923285884917,-38.0,-72.0,34.0,1.703472323114923,0.8774816905393834,0.10545437314752348,-0.2508081382615028,0.03341566177538868,0.045764928083684486,-0.0031962806915588615,-0.003041714947856433
2016-11-01,1477972800,2016-11-07,1478494800,-0.25,0,65.27945262964874,71.24802477313405,68.47,69.15,67.41,68.35,2777315.0,70.18,70.18,69.14,70.05,3177651.0,3.427211537621531,-3.9582607881568492,2.1713062098501155,-2.40256959314776,0,2.670189724248125,-3.803900027464977,-5.964563987972859,-4.873938202898799,-0.892724392756719,2.500326105601366,-11.306940296395092,0.9532122142105606,0,-0.17495486054811402,-42.0,-72.0,30.0,-0.2655246252676591,-0.7956600860360368,-1.5737602550885157,-0.11586036345868103,0.001855817273376248,0.001855817273376248,-0.01299072091363307,0.01772482928955399
2016-11-01,1477972800,2016-11-08,1478581200,-0.25,0,65.27945262964874,71.24802477313405,68.47,69.15,67.41,68.35,2777315.0,69.66,70.55,69.41,70.0,2649164.0,3.122533977366132,-3.7811054059375664,2.105476190476182,-2.490238095238098,1,2.478831301646238,-2.6290165530671867,-4.488706341259982,-5.801369568529751,-0.9680932494074028,2.43971629394478,-10.528480166005835,-0.7944128043091897,0,-0.1734523400561995,-46.0,-72.0,26.0,-0.3292857142857173,-0.6557712867412704,-1.4444967472208816,-0.026762146440070134,-0.004857142857142893,0.007857142857142785,-0.008428571428571452,-0.0007137758743753775
2016-11-01,1477972800,2016-11-09,1478667600,-0.25,0,65.27945262964874,71.24802477313405,68.47,69.15,67.41,68.35,2777315.0,69.99,70.98,69.37,70.05,4966468.0,2.564387589814828,-3.6550371258604883,1.9352843207233121,-2.715679276707135,1,2.659877110417611,-2.8163152053274154,-3.1788436795863575,2.2966117823814045,-1.0500284400040414,2.4280022713263483,-9.566811001353528,1.4608389341001002,0,-0.19756351343475556,-38.0,-60.0,22.0,-0.545324768022823,-0.6574731051737928,-1.4554376686029826,0.03537054297596026,-0.0008565310492505418,0.013276231263383398,-0.009707351891505955,0.0007142857142856673
2016-11-01,1477972800,2016-11-10,1478754000,-0.25,0,65.27945262964874,71.24802477313405,68.47,69.15,67.41,68.35,2777315.0,69.46,70.26,69.03,69.45,3226841.0,3.0251577459527113,-2.706943203116168,2.6731461483081347,-1.9848812095032429,1,0.2420440947785849,-3.0027932960893735,-3.0530132179148137,1.9953108155466026,-0.2798685385998283,2.400555660170049,-9.006283800700688,-0.9485625197996829,0,-0.1788070581787699,-42.0,-60.0,18.0,0.15910727141827863,0.18165598455138365,-0.5803913170983179,0.0357825657475066,0.0001439884809213421,0.011663066954643586,-0.006047516198704139,-0.008565310492505307
2016-11-01,1477972800,2016-11-11,1478840400,-0.25,0,65.27945262964874,71.24802477313405,68.47,69.15,67.41,68.35,2777315.0,69.03,69.39,67.57,68.54,2544699.0,4.161477336639493,-1.5192246374857064,3.8471452193366247,-0.8800213986966554,1,-3.189254825681651,-3.2467532467532423,-4.435650350573542,2.3208499034283463,0.9153657653990166,2.4546059420823396,-9.75391541326837,-0.7480781876448114,0,-0.18357100960908043,-46.0,-60.0,14.0,1.3211263495768861,1.3677825631294382,0.710591018368703,-0.022377360009071062,0.007149110008753956,0.012401517362124137,-0.014152319813247938,-0.013102951763858894
2016-11-01,1477972800,2016-11-14,1479099600,-0.25,0,65.27945262964874,71.24802477313405,68.47,69.15,67.41,68.35,2777315.0,68.37,69.58,67.55,69.49,2667593.0,2.618198374042848,-2.8657160024785497,2.3595721206888527,-2.3907516669065103,1,0.5239179851747977,-1.18031854379977,-3.870795343396232,6.45429031856218,-0.5161331787955419,2.456779995594645,-10.314644581972614,0.7816051024261952,0,-0.10412831893497272,-42.0,-52.0,10.0,-0.12375881421785095,-0.016303462189853235,-0.6401001381068738,0.004551648267786146,-0.016117426967908965,0.0012951503813498633,-0.027917685997985275,0.01386051940472699
2016-11-01,1477972800,2016-11-15,1479186000,-0.25,1,65.27945262964874,71.24802477313405,68.47,69.15,67.41,68.35,2777315.0,70.5,71.22,69.77,70.91,8463745.0,0.7855248616295967,-4.880856972756376,0.3191839420862266,-4.30639778122503,1,5.420546220054526,1.546613203494198,-0.9423595881784005,16.67688043454831,-2.163820235654782,2.4098770520179857,-9.807862375479917,2.473605709141755,0,-0.025289074778709834,-46.0,-52.00000000000001,6.000000000000007,-2.047666055563397,-1.8262758454136332,-2.526690107386969,0.11338501670546239,-0.005781977154138973,0.004371738823861326,-0.016076716965167104,0.020434594905741843
2016-11-02,1478059200,2016-11-16,1479272400,0.75,1,65.27945262964874,74.29323515395629,67.41,68.82,66.69,68.19,3604577.0,70.86,71.99,70.52,71.39,4297003.0,0.1473880415469182,-5.543101726937039,-0.3655974226082179,-4.937666339823508,1,6.937020991131163,0.1683737898133921,2.162237469709668,17.10725769291875,-2.5767680874719474,2.369776642248554,-8.930418430379753,1.2579474293685116,0,0.018607661333581577,-46.0,-48.0,2.0,-2.69785684269506,-2.2495635534971115,-3.0572778030167598,0.207602194951583,-0.007424008964841078,0.008404538450763388,-0.012186580753607013,0.006769143985333681
2016-11-03,1478145600,2016-11-17,1479358800,0.25,0,67.98318656237055,74.29323515395629,68.14,69.64,67.92,69.04,4329908.0,72.05,72.41,69.01,69.24,6180724.0,2.8959616090476317,-2.5262331284005626,2.822549585981136,-2.196225688426736,1,-0.9328075872206156,-2.698145025295112,0.9596255536555197,13.848093488116461,0.6069323286075132,2.619582619843624,-9.329326040108002,-1.7849198707596774,0,-0.019187660402206024,46.0,48.0,-2.0,0.18486424032353455,0.7108948174747525,-0.04522322343167673,0.11940558494175632,0.040583477758521225,0.04578278451761997,-0.0033217793183130118,-0.03011626278190227
2016-11-03,1478145600,2016-11-18,1479445200,0.25,1,67.98318656237055,74.29323515395629,68.14,69.64,67.92,69.04,4329908.0,69.54,70.69,69.27,69.84,3020146.0,1.9079929882664288,-3.3384053594004826,1.918432607865597,-3.1130679648721014,1,1.0545325230633011,-0.7813609887768108,1.0028064758449784,13.369374449051598,-0.1268565358877538,2.559870221499798,-9.69974024914138,0.8742344457343958,0,-0.004972788272793992,42.0,48.0,-6.0,-0.7152061855670269,-0.1396220026202286,-0.8684925610162395,0.09672538444739052,-0.004295532646048095,0.012170675830469602,-0.008161512027491491,0.008665511265164794
2016-11-16,1479272400,2016-11-21,1479704400,-0.25,0,67.98318656237055,74.60779853649646,70.86,71.99,70.52,71.39,4297003.0,71.23,72.73,71.12,71.73,4951979.0,-0.3245731970734482,-6.124611244582752,-0.6584878479483365,-5.532320275105718,1,6.661584235289823,2.179487179487181,3.9286785089213585,14.788075078351312,-2.4294377691494162,2.6021761879907754,-8.939053481887559,1.416614317701527,0,-0.02801171955016743,50.0,60.0,-10.0,-3.2245922208281,-2.506935938736504,-3.343999831231841,0.19840286336879698,-0.006970584134950553,0.013941168269901105,-0.008504112644639572,0.027061855670102997
2016-11-16,1479272400,2016-11-22,1479790800,-0.25,0,67.98318656237055,74.60779853649646,70.86,71.99,70.52,71.39,4297003.0,71.82,72.13,70.05,71.43,4151426.0,0.47955706006077037,-5.842849794206117,-0.08469830603389994,-5.100797984040327,1,5.597410609695075,2.8065630397236654,5.648774341721497,14.029199392210728,-1.7350487059381265,2.6344505845278277,-9.03257726234807,-1.1879439864196253,0,-0.029625111852510714,46.0,60.0,-14.0,-2.681646367072659,-1.8977139009391948,-2.822834994583701,0.23248234106121002,0.005459890802183676,0.009799804003919776,-0.019319613607727937,-0.004182350480970265
2016-11-16,1479272400,2016-11-23,1479877200,-0.25,0,67.98318656237055,74.60779853649646,70.86,71.99,70.52,71.39,4297003.0,71.07,73.25,70.96,72.73,2817168.0,-0.533620129678269,-7.808192052364902,-1.6180851551400082,-6.578899124616171,1,9.101161677043308,5.268490374873354,8.76572662122744,13.22896128880597,-3.2245320267237645,2.627452287606506,-8.564732754681255,0.8110956286274427,0,-0.026576911931649704,50.0,68.0,-18.0,-4.1709060910215925,-3.303490650309783,-4.380995538020699,0.3239845864665167,-0.022824144094596654,0.007149731885054189,-0.024336587377973506,0.018199636007279807
2016-11-16,1479272400,2016-11-25,1480050000,-0.25,1,67.98318656237055,74.60779853649646,70.86,71.99,70.52,71.39,4297003.0,72.27,72.58,71.37,71.96,1682962.0,0.9454072581556829,-6.795879742869431,-0.3552899759125552,-5.371965906985338,1,6.32983822251424,4.608227940107555,9.911826926644764,6.4532140836162455,-2.0155509696836873,2.600879321258909,-8.13030571184779,-0.4915457048961073,0,0.08446276252179614,46.0,68.0,-21.999999999999996,-2.92523624235686,-2.0527241489607775,-3.2261551811278366,0.31384062079550373,0.004307948860478028,0.008615897720956056,-0.00819899944413549,-0.010587102983638297
2016-11-17,1479358800,2016-11-28,1480309200,0.25,0,67.77521973212525,74.60779853649646,72.05,72.41,69.01,69.24,6180724.0,72.46,72.61,69.93,70.08,3297771.0,3.623292588021215,-3.9800277478385055,2.4690829528158247,-2.6992960426179877,1,0.27146206124223227,2.937720329024677,7.865878021972705,6.279067690910821,0.7036087208034871,2.7530481362639465,-8.773457510893586,-0.9757910266050411,0,-0.012445930174373773,42.0,68.0,-26.0,-0.17836757990865237,0.5201086068811662,-0.6053452118766245,0.16896562958294292,0.03396118721461172,0.03610159817351599,-0.0021404109589039377,-0.026125625347415138
2016-11-17,1479358800,2016-11-29,1480395600,0.25,1,67.77521973212525,74.60779853649646,72.05,72.41,69.01,69.24,6180724.0,68.68,70.02,67.48,69.31,4277021.0,4.640618176887855,-2.561553106912413,3.8063290530466816,-1.6733997018227313,1,-1.9562737453955492,2.227138643067854,5.190804008942399,0.08114252062556204,1.6834315109669262,2.8527495249725923,-9.10952158658419,-1.2629504792609254,0,0.019620920704276977,38.0,68.0,-30.0,1.039532534987714,1.4809482670915344,0.4793165601637952,0.017690928158152097,-0.00908959746068383,0.01024383205886581,-0.026403116433415086,-0.010987442922374413
2016-11-21,1479704400,2016-11-30,1480482000,-0.25,1,67.77521973212525,75.57755565033041,71.23,72.73,71.12,71.73,4951979.0,72.96,77.28,72.8,76.87,11455021.0,-3.4248452301477386,-13.261768533349084,-5.746715233511125,-11.043970339534269,0,14.364287273295716,12.465252377468925,12.197599545196907,5.825865043250637,-7.058720423341526,3.129042450599393,-8.163960012686282,3.2251461836004363,1,0.17830046887134957,50.0,84.0,-34.0,-8.343306881748404,-7.69001098735022,-9.033879427589056,0.40189590057095115,-0.0508650969168728,0.005333680239365091,-0.05294653310784447,0.10907516952820662
2016-11-28,1480309200,2016-12-01,1480568400,0.75,0,67.77521973212525,80.07483432201273,72.46,72.61,69.93,70.08,3297771.0,79.26,80.58,77.87,78.54,6762980.0,-3.233526906649857,-16.03308883055412,-7.007469654528492,-12.26593667770139,0,16.789987853067515,15.178178618565784,18.444163842130312,13.33331756068445,-7.9429530863151,3.1811664768711836,-6.519451693667843,1.8682924256747953,0,0.1328406043142803,50.0,88.0,-38.0,-9.633307868601989,-8.733488393754243,-10.5379752214033,0.7247864571188773,0.009167303284950412,0.02597402597402576,-0.008530685001273297,0.021724990243267905
2016-11-28,1480309200,2016-12-02,1480654800,0.75,0,67.77521973212525,80.07483432201273,72.46,72.61,69.93,70.08,3297771.0,78.59,79.08,77.52,77.78,4349605.0,-0.8009278897184657,-15.576032768548444,-5.513842461643932,-10.803119910859706,0,14.680868760611915,12.659327925840083,21.75400578964272,11.227887127732359,-6.385134420407255,3.126064904873651,-5.162238587283952,-1.1938705544100554,0,0.08447092450657871,46.0,88.0,-42.0,-8.188480329133455,-7.094880181258318,-9.284854748829474,0.8355910111127822,0.010413988171766642,0.01671380817690915,-0.003342761635381941,-0.009676597911892126
2016-11-28,1480309200,2016-12-05,1480914000,0.75,0,67.77521973212525,80.07483432201273,72.46,72.61,69.93,70.08,3297771.0,78.64,80.08,78.22,78.32,6292819.0,-0.10704634301839633,-16.324261113569932,-5.682882192713663,-10.742892407218235,0,15.49579504514466,13.787592619497305,24.555759324716263,13.518560913654497,-6.16797034213063,3.0925226797697576,-3.679993077533343,1.7048099400565841,0,-0.03154869660874003,42.0,88.0,-46.0,-8.215653728294157,-6.998732811340005,-9.521676810028694,0.8887140917042524,0.0040858018386109585,0.022471910112359605,-0.0012768130745658413,0.006942658781177613
2016-11-28,1480309200,2016-12-06,1481000400,0.75,0,67.77521973212525,80.07483432201273,72.46,72.61,69.93,70.08,3297771.0,77.62,78.95,76.9,77.96,3712285.0,1.454059926545014,-16.02306967513401,-4.660082093381206,-9.873011800923535,0,14.452201923706681,11.291934332619553,26.185201371495175,5.453378827913916,-4.958710392141711,3.0727139298856336,-2.9663823202063107,-0.9982047085498021,0,-0.10393508618857732,38.0,80.0,-42.0,-7.284504874294498,-5.943630629809448,-8.74685576824487,0.8434372859572883,-0.004361210877372845,0.012698819907644987,-0.013596716264751008,-0.004596527068437162
2016-11-28,1480309200,2016-12-07,1481086800,0.75,0,67.77521973212525,80.07483432201273,72.46,72.61,69.93,70.08,3297771.0,77.92,78.71,77.0,77.63,4086164.0,2.7561550135300337,-15.55404242818932,-3.7161320795225095,-9.024646828975051,0,13.476275537921836,10.899999999999993,27.017489433736948,-0.8083508888025364,-4.0345845771845745,3.022703036068983,-2.3037437598312103,-1.092926985088586,0,-0.1320752952707572,34.0,80.0,-46.0,-6.398943707329636,-5.015821960152223,-8.03114293012004,0.7388509884796308,0.003735669200051639,0.013912147365709115,-0.008115419296663595,-0.004232939969214922
2016-11-28,1480309200,2016-12-08,1481173200,0.75,0,67.77521973212525,80.07483432201273,72.46,72.61,69.93,70.08,3297771.0,78.0,78.92,76.75,78.68,6486801.0,2.381082063259015,-16.580370319486804,-4.458142687680052,-9.766988645992214,0,15.239150216816824,12.319771591720215,28.41822358504109,8.486389315776087,-4.373232450791548,2.9663389470644708,-1.8224624619312912,1.7191252801038435,1,0.022902776263944213,50.0,72.0,-21.999999999999996,-7.099644128113894,-5.684984939941003,-8.895407472710474,0.6889576223468714,-0.008642602948652822,0.0030503304524656105,-0.024529740721911608,0.013525698827772992
2016-11-28,1480309200,2016-12-09,1481259600,0.75,0,67.77521973212525,80.07483432201273,72.46,72.61,69.93,70.08,3297771.0,79.42,80.22,78.99,79.81,4510281.0,2.014899721295322,-17.546787955852423,-5.17854905400327,-10.412229043979451,0,17.041265025211857,14.917206623470122,30.302110019272167,13.715618639303372,-5.071443175416576,2.853285596698787,-1.002102571860295,1.1967169693567896,0,0.0528997549202165,50.0,76.0,-26.0,-7.765944117278551,-6.35175069744011,-9.785898945704417,0.679495358022753,-0.004886605688510182,0.005137200852023405,-0.010274401704047254,0.01436197254702587
2016-11-28,1480309200,2016-12-12,1481518800,0.75,1,67.77521973212525,80.07483432201273,72.46,72.61,69.93,70.08,3297771.0,81.8,82.0,78.87,79.35,5967339.0,3.3093277933105867,-16.409516829227385,-3.8170552404956766,-9.246166771686617,0,15.584304547434812,15.771812080536893,31.198210320879284,14.5448822463552,-3.70834499182223,2.9465923171688657,0.21932109516986387,-1.5728718193360833,0,0.0100754068081312,46.0,76.0,-30.0,-6.550094517958399,-5.255637315144611,-8.89966693798307,0.5928517597244114,0.030875866414618924,0.03339634530560809,-0.0060491493383741934,-0.0057636887608070175
2016-11-30,1480482000,2016-12-13,1481605200,0.75,1,71.24802477313405,84.30297942815272,72.96,77.28,72.8,76.87,11455021.0,80.23,81.82,79.33,80.98,4071459.0,2.2235802904057493,-17.666899628513917,-4.993825635959496,-10.370461842430245,0,18.16488916471721,16.53475320189957,33.00013602689927,20.26736538084927,-4.954110589672823,2.9006785668203285,1.3535002145550088,1.064400265754783,0,0.009617604145983824,50.0,84.0,-34.0,-7.721659669054077,-6.480531111842907,-10.312456720109765,0.5944020854334218,-0.009261546060755688,0.010372931588046308,-0.020375401333662668,0.020541902961562775
2016-12-01,1480568400,2016-12-14,1481691600,0.25,0,75.57755565033041,84.30297942815272,79.26,80.58,77.87,78.54,6762980.0,79.99,80.58,78.04,78.14,4461744.0,6.313205066422881,-14.123545481063289,-0.9408326934561728,-6.652376077126519,0,9.92407662150773,10.196023127908623,30.777715079398156,14.686137975373668,-1.1086114384795138,3.060130493285342,1.636129664322766,-1.1507514871891957,0,-0.06969426646318325,46.0,84.0,-38.0,-3.9051702073201966,-2.78808169665173,-6.776182145302272,0.3645296636217319,0.02367545431277196,0.031226004607115332,-0.0012797542871767487,-0.03507038775006177
2016-12-01,1480568400,2016-12-15,1481778000,0.25,0,75.57755565033041,84.30297942815272,79.26,80.58,77.87,78.54,6762980.0,77.25,78.77,76.88,77.92,4979106.0,6.90634956572336,-13.33602102362893,-0.2134668035591858,-5.995037645448335,0,9.339110026257146,9.146939347247516,28.790718143576022,11.70582603871484,-0.6262122835023831,3.022827219940888,1.2569404441767986,-1.274450512612041,0,-0.05936111662370661,42.0,84.0,-42.0,-3.214835728952778,-2.2742210397422014,-6.257562499713643,0.16802768162735404,-0.008598562628336803,0.010908624229979402,-0.013347022587269053,-0.002815459431789069
2016-12-01,1480568400,2016-12-16,1481864400,0.25,0,75.57755565033041,84.30297942815272,79.26,80.58,77.87,78.54,6762980.0,78.05,78.42,77.07,77.98,12995931.0,6.791986603602183,-12.249796298395722,0.0658288450029687,-5.448405574078819,0,9.45274085720586,12.622761409589847,27.261040010890454,4.393783910763055,-0.29681703068686716,2.928409354698386,0.9048361683269732,3.147886303750105,1,0.035757445145758335,38.0,84.0,-46.0,-2.7289048473967767,-2.1256602821953976,-6.081467402125895,0.020228580211894887,0.0008976660682225024,0.005642472428827983,-0.011669658886894196,0.0007700205338809774
2016-12-01,1480568400,2016-12-19,1482123600,0.25,0,75.57755565033041,84.30297942815272,79.26,80.58,77.87,78.54,6762980.0,78.18,78.28,77.33,77.59,2433914.0,7.179033791506669,-10.660152492370202,1.0411565064226522,-4.440219959616783,0,8.337277744644076,11.096792668957617,25.549926353911246,5.283757928300751,0.7920645016407803,2.8203613308341855,0.57788219789499,-0.5882010709726788,0,0.00037106870787482885,34.0,68.0,-34.0,-1.7405593504317665,-1.4781119236685782,-5.389417115322388,-0.11806067980970525,0.007604072689779695,0.00889289856940323,-0.003350947287021566,-0.005001282380097449
2016-12-01,1480568400,2016-12-20,1482210000,0.25,0,75.57755565033041,84.30297942815272,79.26,80.58,77.87,78.54,6762980.0,78.13,78.23,77.01,77.35,2549112.0,7.479805498093953,-9.62460187818445,1.6959706959707006,-3.7519931049342716,0,7.636781067427776,7.834936567684359,23.858545218090864,-3.298699021666671,1.5882176746037118,2.739693289844416,0.07322593184171211,-0.6147190791886742,0,-0.141950398686192,30.0,68.0,-38.0,-1.0723981900452486,-1.06076115307134,-4.896023632055787,-0.23329827021623561,0.010084033613445342,0.011376858435682147,-0.004395604395604269,-0.0030931821110968816
2016-12-01,1480568400,2016-12-21,1482296400,0.25,0,75.57755565033041,84.30297942815272,79.26,80.58,77.87,78.54,6762980.0,77.79,77.87,76.73,76.89,2658754.0,7.923948211845428,-8.174956145256814,2.630814583604277,-2.727489487146144,0,6.273495620575908,7.643847123057529,21.893738803841217,-10.270015823623652,2.072742529310929,2.665123262920176,-0.5764856794182727,-0.6407064568775382,0,-0.12866759093526844,26.0,68.0,-42.0,-0.12550396670569341,-0.42419760363370074,-4.157368680247643,-0.3415547278735609,0.011705033164260747,0.012745480556639377,-0.00208089478475737,-0.005946994182288168
2016-12-01,1480568400,2016-12-22,1482382800,0.25,0,75.57755565033041,84.30297942815272,79.26,80.58,77.87,78.54,6762980.0,76.98,77.48,76.38,77.33,2931928.0,7.237673835264388,-8.030380417444661,2.2770378033535934,-2.8968921074184237,0,7.290637209195957,6.324762821394189,20.621922875128533,-9.423576184616863,1.442397723768238,2.562281557626057,-1.4116866794669924,0.7059097232645066,0,-0.05749343420483253,22.0,68.0,-46.0,-0.3963532910901364,-0.8964145752122903,-4.518283955796221,-0.38154619462486883,-0.004526057157635988,0.0019397387818440581,-0.012285012285012331,0.005722460658083017
2016-12-01,1480568400,2016-12-23,1482469200,0.25,0,75.57755565033041,84.30297942815272,79.26,80.58,77.87,78.54,6762980.0,77.06,77.26,76.19,76.5,2001179.0,8.089433710620568,-6.127342207352555,3.6834422657952217,-1.5283224400871518,0,4.76126949844604,6.309060589216241,18.515099820411805,-16.56413485580866,2.4143185232042583,2.511518232554527,-2.3168843725673476,-0.4827052506358741,0,0.013424298308288661,18.0,40.0,-21.999999999999996,0.9810457516339994,0.16179580272508076,-3.345776244209759,-0.4568328809110609,0.007320261437908426,0.00993464052287596,-0.004052287581699399,-0.010733221259537018
2016-12-01,1480568400,2016-12-27,1482814800,0.25,0,75.57755565033041,84.30297942815272,79.26,80.58,77.87,78.54,6762980.0,77.09,77.32,76.72,76.88,1524645.0,6.571902570761921,-4.723567503124045,3.432405480402352,-1.483047173083591,0,5.703760208088752,9.70319634703196,17.10327964089485,-12.944070825797084,1.8960588266351124,2.396782445996987,-3.1227708773670884,0.36993469387121275,0,0.00030532370978712505,14.0,40.0,-26.0,0.9241675338189452,-0.3015396912560533,-3.673573853680864,-0.4720346867564751,0.002731529656607723,0.00572320499479706,-0.002081165452653466,0.004967320261437758
2016-12-01,1480568400,2016-12-28,1482901200,0.25,0,75.57755565033041,84.30297942815272,79.26,80.58,77.87,78.54,6762980.0,76.78,77.1,75.99,76.22,2000761.0,5.196094739258044,-0.6933395568911749,4.726231085454373,-0.04417038397620843,1,3.6598906022761923,9.969701341797716,15.076785063711476,-11.634361500897434,2.744813073173006,2.348877542290389,-4.401079549253144,-0.4860595226955983,0,-0.0013006695574250627,10.0,40.0,-30.0,2.2513775911834273,0.5082623871927439,-2.7281176613822566,-0.51407405763339,0.007347152978220972,0.011545526108632798,-0.003017580687483701,-0.00858480749219559
2016-12-01,1480568400,2016-12-29,1482987600,0.25,0,75.57755565033041,84.30297942815272,79.26,80.58,77.87,78.54,6762980.0,76.18,76.44,75.38,75.94,1606947.0,5.682926979000385,-0.548610413290632,4.90496883504521,0.5673338600649629,1,2.7948221104272974,-1.2098347860023504,13.023201762659747,-20.024020494947564,3.061617902163235,2.288845330480694,-5.736789375950025,-0.3928469822467449,0,-0.09212237082190687,6.000000000000007,40.00000000000001,-34.0,2.5671582828548765,0.7951486912504748,-2.2765442478781495,-0.5453085300393665,0.0031603897814065363,0.00658414537792984,-0.007374242823281585,-0.003673576489110486
2016-12-01,1480568400,2016-12-30,1483074000,0.25,0,75.57755565033041,84.30297942815272,79.26,80.58,77.87,78.54,6762980.0,75.84,76.61,75.53,75.8,2604116.0,5.890327710442378,-0.7386126708645406,4.792216358839056,0.6616094986807468,0,2.35063184360353,-3.4886681945505584,11.113727234287898,-22.769318655295265,2.944505278313841,2.2310534179769603,-7.098556721722069,-0.6390143668962036,0,-0.14859629640553454,2.0,40.0,-38.0,2.5758575197889257,0.8878554093841444,-2.0138542446607346,-0.557955997374372,0.0005277044854881119,0.010686015831134599,-0.0035620052770447552,-0.0018435607058203685
2016-12-01,1480568400,2017-01-03,1483419600,0.25,0,75.57755565033041,84.30297942815272,79.26,80.58,77.87,78.54,6762980.0,76.95,78.45,76.35,77.63,4417495.0,3.3851484807853325,-3.0888712683674697,2.3148267422388216,-1.78796856885225,1,7.294439666740743,-0.19285163281049844,11.466313303336502,-25.245907213089595,0.1498256755961762,2.26668633083169,-7.225930124545606,1.0743859774432245,1,-0.05346127939697657,-2.0,40.0,-42.0,0.14813860620893138,-1.3484665595682657,-4.154159483401358,-0.4312979965826407,-0.008759500193224135,0.010562926703594044,-0.016488470951951606,0.024142480211081674
2016-12-01,1480568400,2017-01-04,1483506000,0.25,0,75.57755565033041,84.30297942815272,79.26,80.58,77.87,78.54,6762980.0,78.17,78.33,77.21,77.69,2589910.0,3.246912099717065,-3.186415253276081,2.1154588750161025,-1.888917492598793,0,7.446814438064436,-0.8043922369765009,11.820762863958192,-27.729089414838484,-0.2398787874949022,2.2061279979148205,-7.344205427167463,0.6308479321489192,0,-0.08910842732592011,-6.0,40.0,-46.0,0.03024842322048471,-1.2889737119849798,-4.062370212969583,-0.33593989843885597,0.006178401338653661,0.008237868451538066,-0.006178401338653661,0.0007728970758726916
2016-12-01,1480568400,2017-01-05,1483592400,0.25,0,75.57755565033041,84.30297942815272,79.26,80.58,77.87,78.54,6762980.0,77.7,78.62,77.54,78.11,3333861.0,2.706231711200118,-3.7022629491978023,1.5141040413092668,-2.344556821576404,0,8.536910415498433,0.19240636223705193,12.576803503343454,-20.27033911959421,-0.8912011670123405,2.136294140181458,-7.280843045712558,0.8099121423441992,0,-0.0028378504415693543,-10.0,-48.0,38.0,-0.49801561899883495,-1.6464369454543117,-4.3986915261370285,-0.24145876801482347,-0.005249007809499329,0.006529253616694541,-0.007297401101011292,0.005406101171322009
2016-12-01,1480568400,2017-01-06,1483678800,0.25,0,75.57755565033041,84.30297942815272,79.26,80.58,77.87,78.54,6762980.0,78.44,79.26,77.76,78.89,2558938.0,1.8347374412410744,-4.638641611604868,0.5514006844974233,-3.2424895424008184,0,10.514308525051774,1.6230838593327388,14.071548160085683,-13.097348813388855,-1.8457506378617268,2.099901452985584,-6.847987031195192,0.6185945089735991,0,0.014239801842561375,-14.0,-48.0,34.0,-1.4019520851818896,-2.369459951094825,-5.13435385588312,-0.12895546859861073,-0.005704145012042083,0.004690074787679022,-0.014323741919127886,0.009985917296120972
2016-12-01,1480568400,2017-01-09,1483938000,0.25,0,75.57755565033041,84.30297942815272,79.26,80.58,77.87,78.54,6762980.0,78.22,78.41,77.09,77.24,3690815.0,3.8858103687704073,-2.66364568725821,2.609615052649744,-1.1552736060762925,0,4.704990673404744,-1.8301982714794254,12.87303579320424,-3.7189241168604354,0.09237370065820016,2.1580194691300076,-7.043505402602534,-0.8910024099455589,0,-0.18206191890685147,-18.0,-48.0,30.0,0.6110823407560844,-0.25684151765401,-2.9859591212620415,-0.16583683914276925,0.012687726566545932,0.015147591921284231,-0.0019419989642670554,-0.020915198377487676
2016-12-01,1480568400,2017-01-10,1484024400,0.25,0,75.57755565033041,84.30297942815272,79.26,80.58,77.87,78.54,6762980.0,77.4,78.28,77.13,77.53,3140952.0,3.1049528848125334,-2.92953691680016,2.0899436777161498,-1.6505438754890633,0,5.495418523185094,-2.856784864052125,12.23438753236942,3.7982586800380176,-0.28112400400397064,2.1023295216071416,-7.225058176052212,0.7603601783165551,0,-0.17476456707584345,-21.999999999999996,-48.0,26.0,0.08770798400618673,-0.5699362690008627,-3.2175119166490163,-0.1702320008606074,-0.0016767702824712627,0.009673674706565105,-0.005159293176834834,0.003754531330916633
2016-12-01,1480568400,2017-01-11,1484110800,0.25,0,75.57755565033041,84.30297942815272,79.26,80.58,77.87,78.54,6762980.0,77.8,78.76,77.03,78.67,3682263.0,1.4601003560726866,-4.271845621103864,0.39955934070590615,-3.1087665776873763,0,8.492649038684604,-0.8569628229363486,13.027480504898703,11.78018185240456,-1.6427307756856493,2.0809501729944455,-7.072450837965466,0.890250473495048,0,-0.05537475360612519,-26.0,-48.0,22.0,-1.4058726325155817,-1.8192667500633206,-4.438802754118626,-0.09940202719927771,-0.01105885343841373,0.0011440193212153282,-0.020846574297699205,0.014703985553979004
2016-12-01,1480568400,2017-01-12,1484197200,0.25,0,75.57755565033041,84.30297942815272,79.26,80.58,77.87,78.54,6762980.0,79.24,79.99,78.73,79.13,4835677.0,0.16682848410040663,-4.358664702980747,-0.3519524832553884,-3.6844433211171435,1,9.646955445909882,-2.284514694986427,14.19367221895882,20.384533862053416,-1.9123048759831107,2.040230860088416,-6.1988684364029645,1.1569019090845565,0,-0.04883562535227173,-30.0,-48.0,18.0,-2.095918109440163,-2.1623925603570484,-4.798465176604168,-0.028304874364712074,0.0013901175281183509,0.010868191583470299,-0.005054972829520943,0.005847209863988789
2016-12-01,1480568400,2017-01-13,1484283600,0.25,0,75.57755565033041,84.30297942815272,79.26,80.58,77.87,78.54,6762980.0,78.73,79.66,78.3,79.15,2732310.0,0.36345984825236144,-4.47716799733638,-0.44430406401349387,-3.626868814487267,1,9.698249680767049,1.2925518300486372,15.16654889731332,20.606654622232767,-1.7663710265803871,2.0167539783993793,-5.814907684179765,0.6538268587912738,0,-0.08466536347320683,-34.0,-48.0,14.0,-2.0568540745420165,-1.9788180024185635,-4.6334026784114855,0.011217451419857416,-0.005306380290587498,0.0064434617814275175,-0.010739102969046233,0.00025274864147628584
2016-12-01,1480568400,2017-01-17,1484629200,0.25,0,75.57755565033041,84.30297942815272,79.26,80.58,77.87,78.54,6762980.0,79.57,80.17,79.19,79.21,4679253.0,0.5350130164399474,-4.634242911655178,-0.47195219458821214,-3.537221731262889,0,9.85937878317533,1.6555441478439323,16.04158264584787,27.037800587865405,-1.5355044924364591,1.9632613180821699,-5.1581084232897005,1.1139901189967087,0,-0.16346876750933703,-38.0,-48.0,10.0,-2.0496149476076084,-1.8575368988626622,-4.5211060392496165,0.03140460140221324,0.004544880696881748,0.012119681858351328,-0.000252493372048912,0.0007580543272265317
2016-12-01,1480568400,2017-01-18,1484715600,0.25,0,75.57755565033041,84.30297942815272,79.26,80.58,77.87,78.54,6762980.0,79.11,79.39,78.65,79.15,2822165.0,0.8187605822329402,-4.6216664571540065,-0.35670667508948384,-3.347230995999169,0,9.608516835167698,1.5003847140292403,16.675166075707747,21.34120308176746,-1.3315583163350766,1.8911912977788576,-5.093459776574267,-0.6767312704061396,0,-0.12061930688946972,-42.0,-48.00000000000001,6.000000000000007,-1.9014529374605331,-1.613316762879009,-4.274267934817033,0.03068489691938625,-0.0005053695514846135,0.003032217308907015,-0.006317119393556503,-0.000757480116146847
2016-12-01,1480568400,2017-01-19,1484802000,0.25,0,75.57755565033041,84.30297942815272,79.26,80.58,77.87,78.54,6762980.0,79.23,79.76,78.44,79.0,2553013.0,1.199513119498306,-4.451411853675538,-0.059704641350208476,-3.1027426160337654,0,8.958291513190524,1.81724449026936,16.95243966118652,26.05810881828566,-0.9820114171501757,1.878789589375729,-4.795500135863801,-0.6261930720058421,0,-0.10180269032098764,-46.0,-48.0,2.0,-1.625949367088623,-1.2906488329448962,-3.9320196190115695,0.011085382358536178,0.00291139240506344,0.009620253164557058,-0.007088607594936791,-0.0018951358180669953
2016-12-01,1480568400,2017-01-20,1484888400,0.25,0,75.57755565033041,84.30297942815272,79.26,80.58,77.87,78.54,6762980.0,79.78,80.2,79.08,79.21,2955799.0,1.1555818970340397,-4.694276506300525,-0.20683415393678217,-3.229179817363132,0,9.607612613136254,2.404654169360051,17.454532767697145,30.13888884614809,-1.0423032121261002,1.848176554447377,-4.241832463018675,0.7257767139400426,0,-0.14951594517742647,38.0,40.0,-2.0,-1.769347304633257,-1.4045027372988415,-4.0225283362403985,0.003628900689004899,0.007196061103396101,0.012498421916424807,-0.001641206918318372,0.0026582278481011024
2016-12-01,1480568400,2017-01-23,1485147600,0.25,0,75.57755565033041,84.30297942815272,79.26,80.58,77.87,78.54,6762980.0,78.61,78.93,77.61,77.7,3281323.0,3.1251087671701328,-2.7415823836437596,1.803088803088798,-1.3011583011583099,0,3.233061925292226,1.05345298478346,15.114918764986443,23.546819807768415,1.0240816396360515,1.8966012533655972,-5.146573134689312,-0.803213424533038,0,-0.17977709206513984,34.0,40.0,-6.0,0.19176319176320078,0.46285311355802605,-2.0727279395782148,-0.10560033488857556,0.011711711711711592,0.015830115830115954,-0.0011583011583011782,-0.019063249589698184
2016-12-01,1480568400,2017-01-24,1485234000,0.25,0,75.57755565033041,84.30297942815272,79.26,80.58,77.87,78.54,6762980.0,78.47,78.57,77.28,77.86,2855272.0,2.931218015207122,-2.8914029625485256,1.6600308245568982,-1.4622399178011847,0,3.7843220877920345,0.6853743695848974,13.40460781482166,16.46988236625222,0.8954389595964045,1.8758549466300216,-6.265977681247023,0.7062225237899499,0,-0.21338422692585152,30.0,40.0,-10.0,0.01990752632930537,0.2319854020927039,-2.1847904696604985,-0.16607660082866937,0.007834574877986222,0.009118931415360798,-0.007449267916773694,0.00205920205920207
2016-12-01,1480568400,2017-01-25,1485320400,0.25,0,75.57755565033041,84.30297942815272,79.26,80.58,77.87,78.54,6762980.0,77.82,78.39,77.53,78.03,2992160.0,2.690513434505945,-2.890436541003453,1.510530137981121,-1.57802554573027,0,4.385667947555184,2.0000000000000013,12.223631208333757,16.765949841956257,0.686482466558715,1.816794694238457,-7.305424760193468,0.7409405521397788,0,-0.19293662248544663,26.0,40.0,-14.0,-0.09996155324874678,0.012318390809284097,-2.3038603836183,-0.19180848530378014,-0.0026912725874664867,0.0046136101499423265,-0.00640779187491991,0.0021834061135370675
2016-12-01,1480568400,2017-01-26,1485406800,0.25,0,75.57755565033041,84.30297942815272,79.26,80.58,77.87,78.54,6762980.0,78.18,79.05,78.03,78.39,2930115.0,2.2517362062830273,-3.176599071444386,1.1678785559382732,-1.960071437683382,0,5.671395731178308,1.964099895941734,11.768223511895675,16.485131662286506,0.2621566004812337,1.7722180032880908,-7.740820412888528,0.7241941802282976,0,-0.21754631545111322,22.0,40.0,-18.0,-0.4624314325806722,-0.40441086590119824,-2.6445802813366583,-0.1818518302208183,-0.0026789131266742316,0.008419441255262061,-0.004592422502870286,0.0046136101499423265
